  -2.3953366238103152e-01  -2.3879583223842360e-01  -2.3510674749142260e-01  -2.3031092852484947e-01  -2.2625293970088428e-01  -2.2440839732738380e-01  -2.2219495087691910e-01  -2.1887477020688229e-01  -2.1813694006427437e-01  -2.2182604679995491e-01  -2.2920421629395690e-01  -2.3510674749142260e-01  -2.3879583223842360e-01  -2.3953366238103152e-01  -2.3842692816145941e-01  -2.3363110919488628e-01  -2.2514620548131217e-01  -2.1444785531727337e-01  -2.0522514344977086e-01  -2.0522514344977086e-01  -2.1334114308638080e-01  -2.2219495087691910e-01  -2.2994202444788528e-01  -2.3658238578795890e-01  -2.4211601290846041e-01  -2.4728073595199773e-01  -2.5465892743467927e-01  -2.6093036270910913e-01  -2.6351273522521756e-01  -2.6166819285171711e-01  -2.6093036270910913e-01  -2.6240600100564548e-01  -2.6461946944478970e-01  -2.6093036270910913e-01  -2.5096984268767830e-01  -2.4211601290846041e-01  -2.3953366238103152e-01  -2.4174710883149622e-01  -2.4359165120499671e-01  -2.4322274712803255e-01  -2.4100930067756784e-01  -2.3916475830406736e-01  -2.4359165120499671e-01  -2.5465892743467927e-01  -2.6093036270910913e-01  -2.5613456573121557e-01  -2.4838747017156984e-01  -2.4912530031417779e-01  -2.5650346980817978e-01  -2.6240600100564548e-01  -2.6461946944478970e-01  -2.6056145863214497e-01  -2.5502783151164349e-01  -2.5465892743467927e-01  -2.6056145863214497e-01  -2.6830855419179073e-01  -2.7347327723532799e-01  -2.7494891553186435e-01  -2.7605562776275688e-01  -2.8085144672932999e-01  -2.8527836161893894e-01  -2.8306489317979472e-01  -2.7716236198232902e-01  -2.7310437315836383e-01  -2.7273544709272007e-01  -2.7494891553186435e-01  -2.7790017013625740e-01  -2.8085144672932999e-01  -2.7937580843279369e-01  -2.7826909620190116e-01  -2.8122035080629421e-01  -2.8343381924543842e-01  -2.8085144672932999e-01  -2.7642453183972110e-01  -2.7421108538925637e-01  -2.7790017013625740e-01  -2.8527836161893894e-01  -2.9007415859683250e-01  -2.9044308466247626e-01  -2.8896744636593996e-01  -2.9118089281640464e-01  -2.9634561585994196e-01  -3.0151033890347922e-01  -3.0335488127697974e-01  -2.9745235007951404e-01  -2.8822961622333199e-01  -2.8306489317979472e-01  -2.8158927687193797e-01  -2.8343381924543842e-01  -2.8749180806940361e-01  -2.9118089281640464e-01  -2.9154979689336880e-01  -2.9413216940947723e-01  -3.0114143482651506e-01  -3.0519942365048025e-01  -3.0261707312305136e-01  -2.9819015823344242e-01  -2.9819015823344242e-01  -3.0003470060694293e-01  -3.0224816904608720e-01  -3.0261707312305136e-01  -2.9708344600254988e-01  -2.8527836161893894e-01  -2.7642453183972110e-01  -2.7384218131229221e-01  -2.7384218131229221e-01  -2.7273544709272007e-01  -2.7236654301575591e-01  -2.7457998946622059e-01  -2.7974471250975791e-01  -2.8564726569590315e-01  -2.8638507384983153e-01  -2.8306489317979472e-01  -2.7605562776275688e-01  -2.6388163930218178e-01  -2.4617402372110517e-01  -2.2403949325041961e-01  -2.0374950515323456e-01  -1.8641079364912214e-01  -1.6944098622197390e-01  -1.5247117879482566e-01  -1.3808373288944606e-01  -1.2775428680237144e-01  -1.2258956375883415e-01  -1.2554082935756700e-01  -1.3992827526294657e-01  -1.6169390165666792e-01  -1.8567297450085399e-01  -2.0854532411980767e-01  -2.2625293970088428e-01  -2.4027147053495990e-01  -2.5429002335771511e-01  -2.6646401181829021e-01  -2.7384218131229221e-01  -2.7273544709272007e-01  -2.6609508575264645e-01  -2.6019255455518076e-01  -2.5797910810471608e-01  -2.5687237388514395e-01  -2.5797910810471608e-01  -2.6129928877475289e-01  -2.6093036270910913e-01  -2.5908582033560867e-01  -2.5761018203907232e-01  -2.5392109729207135e-01  -2.4617402372110517e-01  -2.3695128986492309e-01  -2.3252439696399371e-01  -2.3510674749142260e-01  -2.4432948134760465e-01  -2.5355219321510714e-01  -2.5207655491857084e-01  -2.4211601290846041e-01  -2.3363110919488628e-01  -2.2994202444788528e-01  -2.2920421629395690e-01  -2.2772857799742061e-01  -2.2477730140434798e-01  -2.2403949325041961e-01  -2.3141766274442160e-01  -2.4248493897410417e-01  -2.4506728950153303e-01  -2.4027147053495990e-01  -2.3621348171099471e-01  -2.3695128986492309e-01  -2.3990256645799571e-01  -2.4396055528196089e-01  -2.4617402372110517e-01  -2.4543619357849722e-01  -2.4396055528196089e-01  -2.4580511964414098e-01  -2.5096984268767830e-01  -2.5502783151164349e-01  -2.5392109729207135e-01  -2.5502783151164349e-01  -2.6019255455518076e-01  -2.6941526642268326e-01  -2.7457998946622059e-01  -2.7421108538925637e-01  -2.7089090471921956e-01  -2.6793965011482651e-01  -2.6793965011482651e-01  -2.7162873486182754e-01  -2.7568672368579272e-01  -2.7531781960882851e-01  -2.7347327723532799e-01  -2.7384218131229221e-01  -2.7642453183972110e-01  -2.7753126605929318e-01  -2.7273544709272007e-01  -2.6904636234571910e-01  -2.6941526642268326e-01  -2.7162873486182754e-01  -2.7531781960882851e-01  -2.7605562776275688e-01  -2.7494891553186435e-01  -2.7679345790536480e-01  -2.8306489317979472e-01  -2.9007415859683250e-01  -2.9597671178297774e-01  -2.9634561585994196e-01  -2.9118089281640464e-01  -2.8490943555329518e-01  -2.8158927687193797e-01  -2.8269598910283050e-01  -2.8490943555329518e-01  -2.8490943555329518e-01  -2.8269598910283050e-01  -2.8085144672932999e-01  -2.8564726569590315e-01  -2.9413216940947723e-01  -2.9855906231040663e-01  -2.9966579652997877e-01  -3.0003470060694293e-01  -3.0261707312305136e-01  -3.0704396602398076e-01  -3.0851960432051706e-01  -3.0409271141958766e-01  -2.9376326533251307e-01  -2.8380272332240264e-01  -2.7974471250975791e-01  -2.8269598910283050e-01  -2.8970525451986834e-01  -2.9597671178297774e-01  -3.0224816904608720e-01  -3.1442215750666230e-01  -3.3176086901077473e-01  -3.4651722998745826e-01  -3.5389539948146026e-01  -3.5278866526188812e-01  -3.4983738866881553e-01  -3.4135250694392094e-01  -3.2733395412116578e-01  -3.1183978499055387e-01  -2.9413216940947723e-01  -2.7125980879618378e-01  -2.4764966201764146e-01  -2.3104875866745742e-01  -2.1998148243777485e-01  -2.0706968582327137e-01  -1.8973097431915895e-01  -1.7017880537024205e-01  -1.5284008287178985e-01  -1.3550137136767743e-01  -1.1078447937522320e-01  -7.8689412391597116e-02  -4.2536345589666055e-02  -2.3252844665999283e-03   4.0468138178234858e-02   8.5843922344838300e-02   1.3675334462628300e-01   1.9540985147303369e-01   2.5701762391851724e-01   3.1235393910089132e-01   3.5846754241576290e-01   3.8871805053437886e-01   3.9978534875274097e-01   3.9794080637924045e-01   3.7765079629337583e-01   3.2415902348450221e-01   2.4705708190840678e-01   1.7364422507931232e-01   1.1978353719913476e-01   8.3630470397203727e-02   5.7437945605383095e-02   3.0507601665294318e-02   2.8394392640836170e-03  -1.8188364545638405e-02  -2.9255628406688706e-02  -4.1429619615848769e-02  -5.8768333868546144e-02  -8.0165045190963527e-02  -1.0340629888688144e-01  -1.2295846783579834e-01  -1.3587027544464161e-01  -1.5062663642132515e-01  -1.7017880537024205e-01  -1.8825533602262262e-01  -1.9821587803273305e-01  -2.0522514344977086e-01  -2.1739913191034599e-01  -2.3363110919488628e-01  -2.4838747017156984e-01  -2.5429002335771511e-01  -2.5281438506117876e-01  -2.5133874676464246e-01  -2.5281438506117876e-01  -2.5392109729207135e-01  -2.5687237388514395e-01  -2.6277490508260964e-01  -2.7089090471921956e-01  -2.7826909620190116e-01  -2.8749180806940361e-01  -3.0003470060694293e-01  -3.1036414669401757e-01  -3.1848014633062749e-01  -3.2438269951677273e-01  -3.3028523071423843e-01  -3.3102303886816681e-01  -3.2880959241770208e-01  -3.2364486937416481e-01  -3.1257761513316179e-01  -2.9966579652997877e-01  -2.9265653111294093e-01  -2.9523890362904937e-01  -3.0151033890347922e-01  -3.0409271141958766e-01  -3.0335488127697974e-01  -3.0261707312305136e-01  -3.0446161549655187e-01  -3.0704396602398076e-01  -3.0962633854008920e-01  -3.1294651921012601e-01  -3.1589779580319860e-01  -3.2069359278109216e-01  -3.2622724189027325e-01  -3.2917849649466630e-01  -3.2548941174766527e-01  -3.1552886973755484e-01  -3.0962633854008920e-01  -3.1405325342969809e-01  -3.2106251884673592e-01  -3.2401377345112897e-01  -3.2438269951677273e-01  -3.2216923107762846e-01  -3.1958688055019963e-01  -3.2143142292370008e-01  -3.2475160359373689e-01  -3.2475160359373689e-01  -3.2364486937416481e-01  -3.2807178426377370e-01  -3.3766340020824043e-01  -3.4614830392181450e-01  -3.4909958051488715e-01  -3.4504159169092197e-01  -3.3508104968081154e-01  -3.2733395412116578e-01  -3.2401377345112897e-01  -3.2216923107762846e-01  -3.1848014633062749e-01  -3.1368432736405438e-01  -3.1147088091358965e-01  -3.1515996566059068e-01  -3.2180032700066430e-01  -3.2659614596723741e-01  -3.2659614596723741e-01  -3.2880959241770208e-01  -3.3508104968081154e-01  -3.3840123035084835e-01  -3.3877013442781251e-01  -3.3840123035084835e-01  -3.3286760323034686e-01  -3.2659614596723741e-01  -3.2512050767070111e-01  -3.2696505004420162e-01  -3.2807178426377370e-01  -3.2364486937416481e-01  -3.1848014633062749e-01  -3.1589779580319860e-01  -3.1995578462716379e-01  -3.2585831582462949e-01  -3.2733395412116578e-01  -3.2548941174766527e-01  -3.2733395412116578e-01  -3.3397431546123940e-01  -3.4172141102088516e-01  -3.4577939984485034e-01  -3.4319704931742145e-01  -3.3508104968081154e-01  -3.2585831582462949e-01  -3.1995578462716379e-01  -3.1700450803409119e-01  -3.1737341211105535e-01  -3.1626669988016282e-01  -3.1073307275966128e-01  -3.0815070024355284e-01  -3.1110197683662549e-01  -3.1515996566059068e-01  -3.1479106158362646e-01  -3.0556834971612401e-01  -2.9671451993690612e-01  -3.0040362667258669e-01  -3.1147088091358965e-01  -3.2143142292370008e-01  -3.1921797647323541e-01  -3.0999524261705336e-01  -3.0224816904608720e-01  -2.9560780770601358e-01  -2.9413216940947723e-01  -2.9892798837605039e-01  -3.0483051957351603e-01  -3.1147088091358965e-01  -3.2106251884673592e-01  -3.3102303886816681e-01  -3.3508104968081154e-01  -3.3544995375777570e-01  -3.3618776191170407e-01  -3.3987686864738464e-01  -3.4282812325177769e-01  -3.4024577272434886e-01  -3.3102303886816681e-01  -3.1774233817669911e-01  -3.0741289208962447e-01  -3.0151033890347922e-01  -2.9929689245301455e-01  -2.9745235007951404e-01  -2.9376326533251307e-01  -2.8970525451986834e-01  -2.8749180806940361e-01  -2.9081198873944042e-01  -2.9634561585994196e-01  -2.9745235007951404e-01  -2.9671451993690612e-01  -2.9892798837605039e-01  -3.0409271141958766e-01  -3.0888850839748122e-01  -3.1073307275966128e-01  -3.0593725379308817e-01  -2.9339433926686931e-01  -2.8195818094890213e-01  -2.7790017013625740e-01  -2.7605562776275688e-01  -2.7125980879618378e-01  -2.6314383114825340e-01  -2.5871691625864446e-01  -2.6056145863214497e-01  -2.6720181997221859e-01  -2.7457998946622059e-01  -2.7790017013625740e-01  -2.8011363857540161e-01  -2.8195818094890213e-01  -2.8306489317979472e-01  -2.8454053147633102e-01  -2.8417162739936680e-01  -2.7716236198232902e-01  -2.6683291589525437e-01  -2.6093036270910913e-01  -2.5687237388514395e-01  -2.5023201254507033e-01  -2.4764966201764146e-01  -2.4949420439114198e-01  -2.5060091662203454e-01  -2.5207655491857084e-01  -2.5576563966557186e-01  -2.5797910810471608e-01  -2.5797910810471608e-01  -2.5724127796210816e-01  -2.5945474640125238e-01  -2.6314383114825340e-01  -2.5945474640125238e-01  -2.4801856609460565e-01  -2.3141766274442160e-01  -2.1223440886680867e-01  -2.0374950515323456e-01  -2.0596295160369923e-01  -2.1112767464723656e-01  -2.1186550478984448e-01  -2.0633185568066342e-01  -2.0079822856016194e-01  -1.9969151632926938e-01  -2.0079822856016194e-01  -1.9969151632926938e-01  -1.9415786722008832e-01  -1.9157551669265943e-01  -1.9342005906615994e-01  -1.9784695196708932e-01  -2.0153605870276986e-01  -2.0116713263712613e-01  -1.9342005906615994e-01  -1.8456624028128185e-01  -1.8198387875951319e-01  -1.8087715553428085e-01  -1.7718807078727986e-01  -1.7054770944720624e-01  -1.6316952895886447e-01  -1.5837372098663111e-01  -1.5911154013489928e-01  -1.5984934828882766e-01  -1.5763590183836296e-01  -1.5616026354182666e-01  -1.5689808269009481e-01  -1.5948044421186347e-01  -1.6206280573363210e-01  -1.6243170981059629e-01  -1.5911154013489928e-01  -1.5247117879482566e-01  -1.4878209404782466e-01  -1.4988881727305700e-01  -1.4804427489955649e-01  -1.4361736000994757e-01  -1.4251063678471523e-01  -1.4509299830648387e-01  -1.5247117879482566e-01  -1.6206280573363210e-01  -1.6575189048063310e-01  -1.6132498658536396e-01  -1.5468462524529034e-01  -1.5247117879482566e-01  -1.5357790202005800e-01  -1.5505354031659430e-01  -1.5431572116832615e-01  -1.4656863660302019e-01  -1.3697700966421372e-01  -1.3218119069764062e-01  -1.3255009477460480e-01  -1.3476355221940925e-01  -1.3771482881248187e-01  -1.3734591374117791e-01  -1.3734591374117791e-01  -1.4398627508125153e-01  -1.5284008287178985e-01  -1.5652917861313062e-01  -1.5542244439355848e-01  -1.5984934828882766e-01  -1.7202334774374253e-01  -1.8235279383081718e-01  -1.8456624028128185e-01  -1.8013933638601271e-01  -1.7349897504593909e-01  -1.6722752877716943e-01  -1.6464516725540077e-01  -1.6501408232670473e-01  -1.6501408232670473e-01  -1.6169390165666792e-01  -1.5652917861313062e-01  -1.5874262506359529e-01  -1.7017880537024205e-01  -1.7977043230904852e-01  -1.8124607060558481e-01  -1.7866369808947638e-01  -1.8235279383081718e-01  -1.9083768655005151e-01  -2.0042932448319775e-01  -2.0854532411980767e-01  -2.0891422819677186e-01  -2.0301169699930618e-01  -1.9784695196708932e-01  -1.9674023973619675e-01  -2.0006042040623356e-01  -2.0116713263712613e-01  -1.9747804789012513e-01  -1.9526460143966043e-01  -1.9747804789012513e-01  -2.0559404752673505e-01  -2.1371004716334499e-01  -2.1555458953684548e-01  -2.1481675939423756e-01  -2.1592349361380966e-01  -2.1739913191034599e-01  -2.1961257836081066e-01  -2.2071931258038280e-01  -2.1481675939423756e-01  -2.0596295160369923e-01  -2.0153605870276986e-01  -2.0264277093366242e-01  -2.0559404752673505e-01  -2.0485623937280667e-01  -1.9858478210969724e-01  -1.9194442076962362e-01  -1.9489569736269624e-01  -2.0411840923019875e-01  -2.0817642004284348e-01  -2.0485623937280667e-01  -2.0227386685669824e-01  -2.1038986649330818e-01  -2.1850586612991810e-01  -2.1703022783338180e-01  -2.0891422819677186e-01  -2.0448731330716294e-01  -2.0374950515323456e-01  -2.0559404752673505e-01  -2.0854532411980767e-01  -2.1297221702073704e-01  -2.1371004716334499e-01  -2.0780749397719975e-01  -2.0227386685669824e-01  -2.0301169699930618e-01  -2.0596295160369923e-01  -2.0780749397719975e-01  -2.0817642004284348e-01  -2.1260331294377285e-01  -2.1813694006427437e-01  -2.1813694006427437e-01  -2.0891422819677186e-01  -1.9083768655005151e-01  -1.6833425200240176e-01  -1.4619972153171623e-01  -1.2332738290710230e-01  -1.0561975633168590e-01  -9.0863400852172233e-02  -7.2786870199791645e-02  -5.4710339547411065e-02  -4.4749800285885578e-02  -4.1060710041714694e-02  -3.9585077242348270e-02  -4.7332161807654233e-02  -6.7622147156254336e-02  -8.9756677626939882e-02  -1.1041557529825902e-01  -1.3255009477460480e-01  -1.5505354031659430e-01  -1.7091661352417042e-01  -1.8235279383081718e-01  -1.9231332484658781e-01  -1.9969151632926938e-01  -2.0301169699930618e-01  -2.0374950515323456e-01  -2.0227386685669824e-01  -2.0264277093366242e-01  -2.0817642004284348e-01  -2.1444785531727337e-01  -2.1850586612991810e-01  -2.2035040850341861e-01  -2.1998148243777485e-01  -2.2071931258038280e-01  -2.2182604679995491e-01  -2.1813694006427437e-01  -2.0891422819677186e-01  -1.9489569736269624e-01  -1.8272169790778137e-01  -1.7571243249074353e-01  -1.7423679419420723e-01  -1.7608133656770772e-01  -1.7423679419420723e-01  -1.7054770944720624e-01  -1.6870316707370572e-01  -1.7165443267243857e-01  -1.7349897504593909e-01  -1.7054770944720624e-01  -1.6575189048063310e-01  -1.6390734810713262e-01  -1.6390734810713262e-01  -1.6316952895886447e-01  -1.6169390165666792e-01  -1.5652917861313062e-01  -1.5099554049828934e-01  -1.4841317897652068e-01  -1.4767535982825253e-01  -1.4730645575128834e-01  -1.4841317897652068e-01  -1.4878209404782466e-01  -1.4841317897652068e-01  -1.5062663642132515e-01  -1.5468462524529034e-01  -1.5616026354182666e-01  -1.5616026354182666e-01  -1.5800480591532715e-01  -1.6169390165666792e-01  -1.6575189048063310e-01  -1.7091661352417042e-01  -1.7681915571597590e-01  -1.7423679419420723e-01  -1.6464516725540077e-01  -1.5726698676705900e-01  -1.5468462524529034e-01  -1.5247117879482566e-01  -1.4804427489955649e-01  -1.4398627508125153e-01  -1.4546191337778785e-01  -1.5320899794309381e-01  -1.5948044421186347e-01  -1.5763590183836296e-01  -1.5025772135002119e-01  -1.4619972153171623e-01  -1.4878209404782466e-01  -1.5579135946486247e-01  -1.6095608250839977e-01  -1.5837372098663111e-01  -1.5210226372352167e-01  -1.4915099812478885e-01  -1.5062663642132515e-01  -1.5394681709136196e-01  -1.5431572116832615e-01  -1.4951990220175304e-01  -1.4472409422951968e-01  -1.4361736000994757e-01  -1.4656863660302019e-01  -1.4915099812478885e-01  -1.4656863660302019e-01  -1.4509299830648387e-01  -1.4951990220175304e-01  -1.5320899794309381e-01  -1.5542244439355848e-01  -1.5800480591532715e-01  -1.5579135946486247e-01  -1.4767535982825253e-01  -1.3955937118598238e-01  -1.3476355221940925e-01  -1.3291900984590876e-01  -1.3328791392287295e-01  -1.3476355221940925e-01  -1.3845263696641025e-01  -1.4730645575128834e-01  -1.5948044421186347e-01  -1.6501408232670473e-01  -1.6316952895886447e-01  -1.5948044421186347e-01  -1.6021826336013162e-01  -1.6169390165666792e-01  -1.6243170981059629e-01  -1.6353844403016843e-01  -1.6206280573363210e-01  -1.5911154013489928e-01  -1.5616026354182666e-01  -1.5431572116832615e-01  -1.5468462524529034e-01  -1.5542244439355848e-01  -1.5247117879482566e-01  -1.5062663642132515e-01  -1.5542244439355848e-01  -1.6132498658536396e-01  -1.5984934828882766e-01  -1.5320899794309381e-01  -1.4435517915821572e-01  -1.3476355221940925e-01  -1.2922992509890777e-01  -1.2775428680237144e-01  -1.2775428680237144e-01  -1.2517192528060281e-01  -1.2590974442887096e-01  -1.3070555240110429e-01  -1.3623919051594557e-01  -1.3955937118598238e-01  -1.4029719033425053e-01  -1.4140391355948287e-01  -1.4361736000994757e-01  -1.4915099812478885e-01  -1.5505354031659430e-01  -1.5394681709136196e-01  -1.4693754067998438e-01  -1.3882155203771424e-01  -1.3808373288944606e-01  -1.4103499848817891e-01  -1.3919045611467842e-01  -1.2812319087933563e-01  -1.1447356412222420e-01  -1.0303739480991725e-01  -9.6028129392879441e-02  -9.4921395173307319e-02  -9.7872671766379940e-02  -9.8979394991612277e-02  -9.9348310062916251e-02  -1.0229957566164909e-01  -1.0783321377649037e-01  -1.1041557529825902e-01  -1.0709539462822221e-01  -1.0377521395818540e-01  -1.0303739480991725e-01  -1.0156175651338094e-01  -9.9717214139880439e-02  -9.3814671948074968e-02  -8.5698677808634924e-02  -7.9796135616829453e-02  -7.6475960443962529e-02  -7.6844870018096617e-02  -7.9796135616829453e-02  -8.2747406712732188e-02  -8.1640683487499838e-02  -8.1640683487499838e-02  -9.0125587201073970e-02  -9.8610490914648088e-02  -9.5290310244611279e-02  -8.7174316105171235e-02  -8.1271773913365764e-02  -7.6844870018096617e-02  -7.6107050869828455e-02  -7.6475960443962529e-02  -7.2417960625657571e-02  -6.4670876060351601e-02  -5.8768333868546144e-02  -6.2088514538582953e-02  -6.7991056730388411e-02  -7.1680141477389409e-02  -7.2049051051523497e-02  -7.3155779773925719e-02  -7.9427231539865265e-02  -8.6067587382768998e-02  -8.9756677626939882e-02  -9.0863400852172233e-02  -9.3814671948074968e-02  -9.7872671766379940e-02  -1.0229957566164909e-01  -1.0598866040865008e-01  -1.0709539462822221e-01  -9.9717214139880439e-02  -8.7174316105171235e-02  -7.7582683669194880e-02  -7.7951593243328954e-02  -8.2009593061633926e-02  -8.0902864339231689e-02  -7.6844870018096617e-02  -7.2049051051523497e-02  -6.8359966304522499e-02  -6.9097779955620761e-02  -7.0204508678022998e-02  -6.4670876060351601e-02  -5.5817062772643408e-02  -5.3972520399142909e-02  -5.9137243442680218e-02  -6.3195243260985190e-02  -6.1719604964448872e-02  -5.5079249121545146e-02  -4.8438887781471519e-02  -4.5118707111434710e-02  -4.5118707111434710e-02  -4.4749800285885578e-02  -4.1798529189982850e-02  -3.6633806146445541e-02  -3.4789261024360092e-02  -4.2905255163800136e-02  -5.4341429973276990e-02  -6.0243972165082454e-02  -6.0981785816180717e-02  -6.5408695208619763e-02  -7.7213774095060805e-02  -8.7174316105171235e-02  -9.1232310426306307e-02  -8.8281039330403571e-02  -7.9796135616829453e-02  -7.3524689348059807e-02  -7.4262502999158070e-02  -8.0533954765097615e-02  -8.5698677808634924e-02  -8.4591954583402573e-02  -8.0533954765097615e-02  -8.1640683487499838e-02  -8.6436496956903072e-02  -8.6436496956903072e-02  -8.1271773913365764e-02  -7.6107050869828455e-02  -7.6107050869828455e-02  -7.9427231539865265e-02  -8.4960864157536661e-02  -8.7543225679305309e-02  -8.4223045009268499e-02  -7.7582683669194880e-02  -7.6107050869828455e-02  -8.1640683487499838e-02  -8.8649948904537659e-02  -9.1232310426306307e-02  -9.2339039148708557e-02  -9.4921395173307319e-02  -1.0156175651338094e-01  -1.1004666022695506e-01  -1.1336684089699187e-01  -1.0930884107868689e-01  -1.0303739480991725e-01  -9.9348310062916251e-02  -1.0045503328814859e-01  -1.0414411803514959e-01  -1.0488193718341775e-01  -9.7503756695075966e-02  -8.6805406531037160e-02  -8.1271773913365764e-02  -8.0165045190963527e-02  -8.0902864339231689e-02  -7.9058321965731190e-02  -7.5369231721560306e-02  -7.4262502999158070e-02  -8.2378497138598114e-02  -9.4183581522209056e-02  -1.0119285243641675e-01  -1.0193067158468490e-01  -1.0156175651338094e-01  -1.0303739480991725e-01  -1.0414411803514959e-01  -1.0303739480991725e-01  -9.7134852618111778e-02  -8.3854135435134425e-02  -6.9835599103888910e-02  -6.1350695390314798e-02  -5.8030514720277988e-02  -5.6185972346777489e-02  -5.3972520399142909e-02  -5.2496887599776491e-02  -5.3234701250874754e-02  -5.8399424294412063e-02  -6.3564147337949378e-02  -6.2088514538582953e-02  -5.7292701069179719e-02  -5.2865791676740673e-02  -4.9914520580837944e-02  -4.9176706929739675e-02  -4.9545616503873756e-02  -4.6225435833836946e-02  -3.9216167668214195e-02  -3.7002712971994672e-02  -4.4380890711751504e-02  -5.6185972346777489e-02  -6.9466689529754835e-02  -8.2378497138598114e-02  -9.1601220000440381e-02  -9.8241575843344128e-02  -1.0340629888688144e-01  -1.0303739480991725e-01  -9.4921395173307319e-02  -8.0902864339231689e-02  -6.5039785634485689e-02  -4.9176706929739675e-02  -3.1100173528774151e-02  -9.3345519450764459e-03   1.9809244629793148e-02   5.0059770614211213e-02   7.5514476257763682e-02   9.9493549101949713e-02   1.2273480279786761e-01   1.4966515223512628e-01   1.7954676727111779e-01   2.1053511652668142e-01   2.4299909308444159e-01   2.7693870793873809e-01   3.2010103466053702e-01   3.7322390339244649e-01   4.2560894198174798e-01   4.7061581107704742e-01   5.1488487201841848e-01   5.5841612480586122e-01   5.9936502706587513e-01   6.3404245007409998e-01   6.4990552328167606e-01   6.4437189616117452e-01   6.2186846161352483e-01   5.7870613489172584e-01   5.1672941439191900e-01   4.5807294052818770e-01   4.1232821930160074e-01   3.7506844576594700e-01   3.4371120342775890e-01   3.1456740754003554e-01   2.7878325031223855e-01   2.3598982766740378e-01   1.9614765962696207e-01   1.6552823643704218e-01   1.3970461022501585e-01   1.1720117567736611e-01   9.8755729953681565e-02   8.4368289545471875e-02   6.8505210840725875e-02   5.0797584265309476e-02   3.6041234282965705e-02   2.4605059473488851e-02   1.4644521586255840e-02   2.1016214901079340e-03  -1.5606001649577279e-02  -3.1469083102908225e-02  -3.8847258094080114e-02  -4.1060710041714694e-02  -4.2536345589666055e-02  -4.4380890711751504e-02  -4.9545616503873756e-02  -5.4710339547411065e-02  -5.4341429973276990e-02  -5.3972520399142909e-02  -5.9137243442680218e-02  -6.7253237582120262e-02  -7.1311237400425220e-02  -7.3524689348059807e-02  -7.4631412573292144e-02  -7.7213774095060805e-02  -8.3116316286866262e-02  -9.0494491278038158e-02  -9.0863400852172233e-02  -8.7543225679305309e-02  -8.7912129756269497e-02  -9.3445762373940894e-02  -9.9717214139880439e-02  -1.0082393736511278e-01  -9.3076858296976706e-02  -8.2747406712732188e-02  -7.9058321965731190e-02  -8.1640683487499838e-02  -8.5698677808634924e-02  -8.9018858478671734e-02  -9.2339039148708557e-02  -9.4183581522209056e-02  -9.8241575843344128e-02  -1.0488193718341775e-01  -1.0746429870518640e-01  -1.0193067158468490e-01  -9.3445762373940894e-02  -8.7543225679305309e-02  -8.6436496956903072e-02  -8.4960864157536661e-02  -7.9796135616829453e-02  -6.8359966304522499e-02  -5.7292701069179719e-02  -5.2127978025642410e-02  -5.1390158877374255e-02  -5.3234701250874754e-02  -5.5079249121545146e-02  -5.3603610825008835e-02  -4.8807797355605601e-02  -4.9545616503873756e-02  -5.5079249121545146e-02  -5.5448153198509334e-02  -4.8069978207337445e-02  -4.2167438764116924e-02  -4.3274164737934211e-02  -4.6963252233520159e-02  -4.9176706929739675e-02  -4.9176706929739675e-02  -4.2167438764116924e-02  -3.3313625476408724e-02  -2.8886718832554628e-02  -3.1837989928457364e-02  -3.7002712971994672e-02  -3.9216167668214195e-02  -4.0322893642031482e-02  -4.4011981137617423e-02  -4.9545616503873756e-02  -5.2865791676740673e-02  -5.5817062772643408e-02  -5.5448153198509334e-02  -5.3972520399142909e-02  -5.3972520399142909e-02  -5.5817062772643408e-02  -5.5817062772643408e-02  -4.8069978207337445e-02  -3.1469083102908225e-02  -1.9663998719297297e-02  -1.8926182319614088e-02  -2.3353087589175713e-02  -2.5935450485236843e-02  -2.6304357310785974e-02  -2.5935450485236843e-02  -2.6673266884920051e-02  -2.9624537980822784e-02  -3.0362354380505996e-02  -2.8148902432871419e-02  -2.4828723137127081e-02  -2.4459813562993003e-02  -2.8517812007005497e-02  -3.1837989928457364e-02  -3.1100173528774151e-02  -2.6304357310785974e-02  -2.0032908293431375e-02  -1.5606001649577279e-02  -1.3392549014796465e-02  -1.3761457901784306e-02  -1.7450546771662721e-02  -2.2984179389334111e-02  -2.8517812007005497e-02  -3.8478348519946040e-02  -5.1390158877374255e-02  -5.5817062772643408e-02  -4.7701071381788314e-02  -3.5895986998177379e-02  -2.9255628406688706e-02  -2.7411086033188207e-02  -2.8886718832554628e-02  -2.9624537980822784e-02  -2.4090905363151397e-02  -1.6343819423552963e-02  -1.3023640127808623e-02  -9.7034608320642861e-03  -8.4964909043512126e-04   1.6120157134207204e-02   3.8992505378868433e-02   5.8913578404749520e-02   6.8874120414859949e-02   7.6621204980165919e-02   9.2853187761876094e-02   1.1793899482563426e-01   1.3786006785151536e-01   1.4486933326855317e-01   1.4339370596635662e-01   1.4154915259851636e-01   1.4228697174678451e-01   1.4118024852155217e-01   1.2900626006097704e-01   1.0539609129375518e-01   7.8465747353666418e-02   5.6700126457114940e-02   4.1205957326503014e-02   3.0138692091160241e-02   2.1653788377586119e-02   1.2799977838462867e-02   7.6352541077793212e-03   9.4797985427185292e-03   1.6120157134207204e-02   2.0547062403768832e-02   2.0547062403768832e-02   1.6489065334048810e-02   1.4275613386414233e-02   1.7595792682158572e-02   2.1284881552036988e-02   2.2760517099988352e-02   2.6449604595574296e-02   3.4934508309148418e-02   4.2312683300320300e-02   4.4157228422405749e-02   4.1205957326503014e-02   3.1614327639111608e-02   1.8333610456134256e-02   9.8487067425601336e-03   1.2062160064487185e-02   1.7595792682158572e-02   1.8702518655975862e-02   1.8702518655975862e-02   2.5342878621757010e-02   3.9361412204417572e-02   5.5593403231882596e-02   6.7398482118323638e-02   7.3301024310129109e-02   7.6252295406031831e-02   7.7359024128434067e-02   8.0310295224336803e-02   8.6581741493106448e-02   8.9901922163143258e-02   8.5106108693740037e-02   7.9572476076068641e-02   8.1785928023703228e-02   8.6950651067240536e-02   8.3261560823069639e-02   7.3669933884263183e-02   6.6660668467225376e-02   6.5185030170689065e-02   7.1825391510762684e-02   8.2892656746105450e-02   9.2115379607947731e-02   9.6542283503216877e-02   9.5804464354948715e-02   9.7280102651485026e-02   1.0428936806852283e-01   1.1240535671079299e-01   1.1498771823256164e-01   1.1314317585906114e-01   1.1498771823256164e-01   1.2162807957263526e-01   1.2974407920924519e-01   1.3269534480797804e-01   1.2789952584140490e-01   1.1757007975433030e-01   1.1092972940859645e-01   1.1388099500732930e-01   1.2273480279786761e-01   1.2937516413794123e-01   1.3158862158274570e-01   1.3417098310451436e-01   1.3970461022501585e-01   1.4560715241682132e-01   1.5077187546035861e-01   1.5298533290516309e-01   1.5187860967993075e-01   1.5040297138339442e-01   1.5114079053166260e-01   1.5077187546035861e-01   1.4818951393858998e-01   1.4892733308685813e-01   1.5372315205343123e-01   1.6294587491527351e-01   1.7364422507931232e-01   1.8028458641938594e-01   1.8176022471592226e-01   1.8212912879288645e-01   1.8397367116638694e-01   1.8692494775945956e-01   1.8913839420992426e-01   1.8803165999035212e-01   1.7844004404588545e-01   1.6442150221747004e-01   1.5593659850389593e-01   1.5888787509696856e-01   1.6183914069570141e-01   1.5815005594870041e-01   1.5409205613039542e-01   1.5667441765216408e-01   1.6811059795881084e-01   1.8508040538595907e-01   1.9836112806610631e-01   2.0315692504399988e-01   1.9909893622003469e-01   1.9356530909953318e-01   1.9135184066038893e-01   1.9135184066038893e-01   1.9172076672603269e-01   1.8876949013296007e-01   1.8581821353988745e-01   1.8286693694681483e-01   1.7917786319415360e-01   1.7327532100234813e-01   1.6700386373923870e-01   1.6442150221747004e-01   1.6626604459097055e-01   1.7069295948057947e-01   1.7438204422758047e-01   1.7253750185407998e-01   1.6405259814050585e-01   1.5630551357519989e-01   1.5482987527866360e-01   1.5667441765216408e-01   1.5704333272346804e-01   1.5077187546035861e-01   1.4154915259851636e-01   1.3380206803321038e-01   1.2753062176444072e-01   1.2089026042436711e-01   1.1572553738082980e-01   1.1203645263382880e-01   1.0871627196379199e-01   1.1092972940859645e-01   1.2310371786917157e-01   1.3638442955497904e-01   1.4376261004332080e-01   1.4855842900989394e-01   1.5187860967993075e-01   1.5077187546035861e-01   1.4855842900989394e-01   1.4450042919158898e-01   1.3601552547801485e-01   1.2863734498967308e-01   1.2974407920924519e-01   1.3601552547801485e-01   1.3675334462628300e-01   1.3085080243447753e-01   1.2310371786917157e-01   1.1609445245213376e-01   1.1388099500732930e-01   1.1646335652909795e-01   1.1646335652909795e-01   1.1461881415559745e-01   1.1351209093036511e-01   1.1572553738082980e-01   1.1867681397390242e-01   1.2089026042436711e-01   1.2089026042436711e-01   1.1793899482563426e-01   1.1904571805086661e-01   1.2789952584140490e-01   1.3527770632974670e-01   1.3564662140105066e-01   1.3269534480797804e-01   1.3232644073101385e-01   1.3343316395624619e-01   1.3933570614805166e-01   1.4671388663639343e-01   1.4782060986162579e-01   1.4413152511462479e-01   1.3859788699978351e-01   1.3158862158274570e-01   1.2494826024267207e-01   1.1830789890259845e-01   1.0908517604075618e-01   1.0281372977198652e-01   1.0392045299721887e-01   1.1203645263382880e-01   1.2162807957263526e-01   1.2679280261617257e-01   1.2568607939094023e-01   1.2273480279786761e-01   1.2347262194613576e-01   1.3306425987928200e-01   1.4523824833985713e-01   1.5298533290516309e-01   1.5482987527866360e-01   1.5261641783385912e-01   1.4745169479032180e-01   1.4376261004332080e-01   1.4265588681808847e-01   1.3933570614805166e-01   1.3158862158274570e-01   1.2421044109440392e-01   1.2089026042436711e-01   1.1830789890259845e-01   1.1424991007863326e-01   1.0982299518902433e-01   1.0760954873855964e-01   1.0945409111206014e-01   1.1424991007863326e-01   1.1867681397390242e-01   1.1978353719913476e-01   1.1867681397390242e-01   1.1757007975433030e-01   1.1867681397390242e-01   1.1978353719913476e-01   1.1683227160040192e-01   1.1056081433729249e-01   1.0834736788682781e-01   1.1092972940859645e-01   1.1424991007863326e-01   1.1203645263382880e-01   1.0724063366725568e-01   1.0650281451898752e-01   1.0871627196379199e-01   1.1461881415559745e-01   1.2310371786917157e-01   1.2900626006097704e-01   1.3048189835751337e-01   1.2568607939094023e-01   1.2052135634740292e-01   1.2015244127609895e-01   1.2310371786917157e-01   1.2347262194613576e-01   1.1793899482563426e-01   1.1277427178209695e-01   1.1424991007863326e-01   1.1830789890259845e-01   1.1683227160040192e-01   1.0945409111206014e-01   1.0207591062371837e-01   1.0170700654675419e-01   1.1019191026032830e-01   1.2089026042436711e-01   1.2789952584140490e-01   1.3121970651144171e-01   1.3601552547801485e-01   1.4302479089505266e-01   1.4818951393858998e-01   1.4966515223512628e-01   1.4560715241682132e-01   1.4007352529631981e-01   1.3490880225278251e-01   1.3269534480797804e-01   1.2863734498967308e-01   1.2162807957263526e-01   1.1129863348556064e-01   1.0392045299721887e-01   1.0539609129375518e-01   1.1277427178209695e-01   1.1572553738082980e-01   1.1240535671079299e-01   1.1092972940859645e-01   1.1351209093036511e-01   1.1830789890259845e-01   1.2162807957263526e-01   1.2015244127609895e-01   1.1129863348556064e-01   1.0170700654675419e-01   1.0023136825021788e-01   1.0724063366725568e-01   1.1424991007863326e-01   1.1867681397390242e-01   1.1757007975433030e-01   1.1683227160040192e-01   1.1830789890259845e-01   1.1978353719913476e-01   1.2089026042436711e-01   1.2052135634740292e-01   1.1757007975433030e-01   1.1424991007863326e-01   1.1240535671079299e-01   1.1240535671079299e-01   1.0797845281552383e-01   9.9493549101949713e-02   9.4697741129716378e-02   9.7649006728449214e-02   1.0355154892025469e-01   1.0465827214548702e-01   1.0133809147545021e-01   9.6173368431912903e-02   9.4328826058412404e-02   9.8386825876717376e-02   1.0355154892025469e-01   1.0539609129375518e-01   1.0355154892025469e-01   1.0281372977198652e-01   1.0244482569502233e-01   1.0060028332152184e-01   9.7280102651485026e-02   9.1008645388375609e-02   8.7688470215508685e-02   8.8426289363776847e-02   9.0270826240107446e-02   9.1377560459679569e-02   9.0270826240107446e-02   8.6581741493106448e-02   8.0310295224336803e-02   7.9572476076068641e-02   8.5475018267874112e-02   9.1377560459679569e-02   9.3959921981448216e-02   9.4328826058412404e-02   9.5804464354948715e-02   9.8017921799753188e-02   9.8386825876717376e-02   9.6911187580181066e-02   9.5066645206680567e-02   9.6542283503216877e-02   1.0392045299721887e-01   1.1129863348556064e-01   1.1203645263382880e-01   1.0687172959029149e-01   1.0023136825021788e-01   9.4697741129716378e-02   9.5435549283644755e-02   9.9124645024985525e-02   1.0244482569502233e-01   1.0687172959029149e-01   1.0982299518902433e-01   1.1056081433729249e-01   1.1056081433729249e-01   1.1572553738082980e-01   1.1904571805086661e-01   1.1461881415559745e-01   1.0797845281552383e-01   1.0060028332152184e-01   9.2484283684911905e-02   8.5843922344838300e-02   8.2154837597837302e-02   8.1785928023703228e-02   8.2892656746105450e-02   8.7688470215508685e-02   9.3959921981448216e-02   9.8017921799753188e-02   9.6911187580181066e-02   9.2115379607947731e-02   8.9901922163143258e-02   9.4328826058412404e-02   9.8017921799753188e-02   9.4328826058412404e-02   8.6581741493106448e-02   8.3261560823069639e-02   8.3999379971337801e-02   8.7688470215508685e-02   8.9164103014875110e-02   8.7688470215508685e-02   8.5475018267874112e-02   8.6581741493106448e-02   9.4697741129716378e-02   1.0170700654675419e-01   1.0170700654675419e-01   9.7280102651485026e-02   9.5066645206680567e-02   9.8755729953681565e-02   1.0502718721679100e-01   1.0502718721679100e-01   9.6173368431912903e-02   8.6950651067240536e-02   8.4368289545471875e-02   8.7319560641374611e-02   8.9533012589009184e-02   9.0270826240107446e-02   9.2115379607947731e-02   9.5435549283644755e-02   1.0281372977198652e-01   1.1166753756252483e-01   1.1941463312217057e-01   1.2421044109440392e-01   1.2789952584140490e-01   1.3048189835751337e-01   1.2863734498967308e-01   1.2384153701743973e-01   1.1609445245213376e-01   1.0281372977198652e-01   9.2115379607947731e-02   8.5106108693740037e-02   8.0310295224336803e-02   7.5514476257763682e-02   6.9611934065958211e-02   6.6291758893091288e-02   6.8505210840725875e-02   7.9203566501934566e-02   9.4328826058412404e-02   1.0576500636505914e-01   1.1019191026032830e-01   1.1019191026032830e-01   1.1056081433729249e-01   1.1535663330386561e-01   1.2052135634740292e-01   1.1978353719913476e-01   1.1572553738082980e-01   1.1683227160040192e-01   1.1720117567736611e-01   1.1019191026032830e-01   1.0244482569502233e-01   9.6173368431912903e-02   9.3591006910144256e-02   9.9124645024985525e-02   1.1092972940859645e-01   1.1941463312217057e-01   1.2015244127609895e-01   1.1609445245213376e-01   1.1609445245213376e-01   1.2125917549567107e-01   1.2753062176444072e-01   1.2863734498967308e-01   1.2273480279786761e-01   1.1646335652909795e-01   1.1572553738082980e-01   1.2015244127609895e-01   1.2199699464393923e-01   1.2015244127609895e-01   1.1498771823256164e-01   1.1166753756252483e-01   1.1498771823256164e-01   1.2347262194613576e-01   1.2753062176444072e-01   1.2273480279786761e-01   1.1609445245213376e-01   1.1277427178209695e-01   1.1092972940859645e-01   1.1203645263382880e-01   1.1203645263382880e-01   1.0465827214548702e-01   9.5804464354948715e-02   9.1008645388375609e-02   8.5475018267874112e-02   7.4776662606665420e-02   6.6291758893091288e-02   6.4447211022420903e-02   6.6291758893091288e-02   7.0349753214226374e-02   6.8874120414859949e-02   6.1127035849553986e-02   5.2642132135979867e-02   4.8215222743540821e-02   4.7846318666576633e-02   4.9321951465943058e-02   4.6370680370040322e-02   3.6041234282965705e-02   2.3498333499671564e-02   1.9440336429951542e-02   2.3867243073805642e-02   2.6449604595574296e-02   2.2391607525854274e-02   1.6489065334048810e-02   1.3906703812280156e-02   1.7226883108024494e-02   2.6080695021440219e-02   3.1983237213245683e-02   3.4196689160880263e-02   4.0837047752368932e-02   5.3748855361212211e-02   7.3301024310129109e-02   9.9862464173253687e-02   1.2162807957263526e-01   1.3453988718147852e-01   1.4671388663639343e-01   1.6626604459097055e-01   1.8397367116638694e-01   1.9614765962696207e-01   2.0057457451657099e-01   1.9540985147303369e-01   1.8434257524335113e-01   1.7511986337584864e-01   1.6110132154743323e-01   1.3749116377455117e-01   1.0908517604075618e-01   8.4368289545471875e-02   6.6291758893091288e-02   5.0797584265309476e-02   3.9730321778551646e-02   3.0507601665294318e-02   2.2391607525854274e-02   1.6857974908182888e-02   1.4275613386414233e-02   1.1693250490353108e-02   5.4218007858522713e-03  -7.1210993102956326e-03  -2.1508543841382743e-02  -2.9624537980822784e-02  -2.7042176459054129e-02  -1.8926182319614088e-02  -1.3023640127808623e-02  -6.3832815363199496e-03   3.9461659250471419e-03   1.6857974908182888e-02   3.3458872761197050e-02   5.2273222561845786e-02   6.8505210840725875e-02   8.3630470397203727e-02   1.0060028332152184e-01   1.2052135634740292e-01   1.4154915259851636e-01   1.6405259814050585e-01   1.8840058605599588e-01   2.1496200942761079e-01   2.4558144361187045e-01   2.8062779268573906e-01   3.1641194991353605e-01   3.5108937292176090e-01   3.8945590266566638e-01   4.3556950598053795e-01   4.8832347063548315e-01   5.4329085975221347e-01   5.9641375047280243e-01   6.4363408800724620e-01   6.9048549947604621e-01   7.2774527301169989e-01   7.4139492175749078e-01   7.3180328382434467e-01   7.0450403031012176e-01   6.5064333143560449e-01   5.7833720882608208e-01   5.1340925571056173e-01   4.6692672633004645e-01   4.3556950598053795e-01   4.1195933721331607e-01   3.8650462607259373e-01   3.5108937292176090e-01   3.1530521569396391e-01   2.8284123913620374e-01   2.4816381612797889e-01   2.1274856297714612e-01   1.8508040538595907e-01   1.6368368306920189e-01   1.4560715241682132e-01   1.2568607939094023e-01   1.0908517604075618e-01   9.7649006728449214e-02   9.2484283684911905e-02   8.8426289363776847e-02   8.0310295224336803e-02   6.7029572544189564e-02   5.8175764753651250e-02   5.4486674509480366e-02   5.2642132135979867e-02   4.7108499518308478e-02   3.7516869830917073e-02   2.3867243073805642e-02   1.4275613386414233e-02   1.0955432716377422e-02   9.1108889685844515e-03   5.4218007858522713e-03  -8.4964909043512126e-04  -7.4900081972834737e-03  -9.3345519450764459e-03  -1.1183148824599717e-04   1.1693250490353108e-02   1.6489065334048810e-02   1.4275613386414233e-02   1.0586524516535818e-02   7.6352541077793212e-03   5.4218007858522713e-03   2.4705303770957755e-03  -2.3252844665999283e-03  -1.3761457901784306e-02  -2.7779992858737342e-02  -3.6264896572311460e-02  -3.9585077242348270e-02  -4.2905255163800136e-02  -4.6594342659386077e-02  -4.8438887781471519e-02  -4.8069978207337445e-02  -4.1798529189982850e-02  -3.3313625476408724e-02  -2.8517812007005497e-02  -2.4828723137127081e-02  -2.1877452041224349e-02  -1.8926182319614088e-02  -1.9663998719297297e-02  -2.2984179389334111e-02  -3.1837989928457364e-02  -4.1429619615848769e-02  -4.5118707111434710e-02  -4.4011981137617423e-02  -4.5856526259702865e-02  -5.2865791676740673e-02  -5.8399424294412063e-02  -5.9506153016814299e-02  -5.6185972346777489e-02  -4.6594342659386077e-02  -3.6633806146445541e-02  -3.1837989928457364e-02  -3.1837989928457364e-02  -3.1837989928457364e-02  -3.1469083102908225e-02  -3.5527080172628248e-02  -4.4380890711751504e-02  -5.3234701250874754e-02  -5.8030514720277988e-02  -5.5817062772643408e-02  -5.0283430154972018e-02  -4.4011981137617423e-02  -4.0691803216165556e-02  -3.9953984067897401e-02  -4.1798529189982850e-02  -4.1798529189982850e-02  -3.8847258094080114e-02  -3.7740532120262828e-02  -3.9216167668214195e-02  -3.8847258094080114e-02  -3.5895986998177379e-02  -3.5527080172628248e-02  -3.5895986998177379e-02  -3.8478348519946040e-02  -4.1798529189982850e-02  -4.1429619615848769e-02  -3.4789261024360092e-02  -2.9255628406688706e-02  -3.2206899502591438e-02  -3.9585077242348270e-02  -4.2905255163800136e-02  -3.9585077242348270e-02  -2.8517812007005497e-02  -1.8188364545638405e-02  -1.3023640127808623e-02  -1.1548005267003494e-02  -1.0810187493027812e-02  -9.7034608320642861e-03  -6.7521904233077907e-03  -5.6454637623442657e-03  -1.3392549014796465e-02  -2.7779992858737342e-02  -4.1060710041714694e-02  -4.8438887781471519e-02  -5.2496887599776491e-02  -5.6923791495045645e-02  -6.0243972165082454e-02  -6.3195243260985190e-02  -6.6884328007986188e-02  -6.6146508859718026e-02  -5.9137243442680218e-02  -4.9545616503873756e-02  -4.5118707111434710e-02  -4.6225435833836946e-02  -4.5856526259702865e-02  -4.2536345589666055e-02  -4.1429619615848769e-02  -4.8438887781471519e-02  -5.6923791495045645e-02  -5.9506153016814299e-02  -5.5817062772643408e-02  -4.8438887781471519e-02  -4.4749800285885578e-02  -4.7332161807654233e-02  -5.1390158877374255e-02  -4.9914520580837944e-02  -4.2167438764116924e-02  -3.8109441694396902e-02  -3.8847258094080114e-02  -3.9216167668214195e-02  -3.7002712971994672e-02  -3.4789261024360092e-02  -3.4420351450226018e-02  -3.6264896572311460e-02  -4.0691803216165556e-02  -4.1429619615848769e-02  -3.6264896572311460e-02  -3.0731263954640074e-02  -3.0362354380505996e-02  -3.0731263954640074e-02  -3.0362354380505996e-02  -2.8148902432871419e-02  -2.1877452041224349e-02  -1.7450546771662721e-02  -1.7081637197528643e-02  -1.5237093449735672e-02  -1.2654731927967018e-02  -1.0441278606039970e-02  -1.1916914153991334e-02  -1.4499275675759990e-02  -2.1508543841382743e-02  -3.2206899502591438e-02  -3.8847258094080114e-02  -3.9953984067897401e-02  -3.9585077242348270e-02  -4.4749800285885578e-02  -5.2127978025642410e-02  -5.7661610643313800e-02  -5.7661610643313800e-02  -4.9914520580837944e-02  -3.9585077242348270e-02  -3.0362354380505996e-02  -2.5566540911102765e-02  -2.6673266884920051e-02  -2.6673266884920051e-02  -2.2984179389334111e-02  -2.1508543841382743e-02  -2.5197631336968687e-02  -2.7779992858737342e-02  -1.7819454971504327e-02  -1.2185579774229628e-03   1.0586524516535818e-02   1.6857974908182888e-02   1.9440336429951542e-02   1.6857974908182888e-02   1.6120157134207204e-02   2.0178154203927226e-02   2.2022697951720197e-02   1.8333610456134256e-02   1.4644521586255840e-02   1.5013429786097444e-02   1.8333610456134256e-02   2.0915971977902910e-02   2.0547062403768832e-02   1.7226883108024494e-02   1.5382339360231522e-02   1.5013429786097444e-02   1.4275613386414233e-02   1.5751247560073126e-02   1.9440336429951542e-02   2.0915971977902910e-02   2.0547062403768832e-02   2.1284881552036988e-02   2.4973969047622929e-02   2.7925240143525664e-02   3.1614327639111608e-02   3.6779050682648917e-02   4.3050502448588455e-02   4.6739589944174403e-02   4.6370680370040322e-02   4.1574866900637095e-02   3.1614327639111608e-02   2.2760517099988352e-02   2.1284881552036988e-02   2.2022697951720197e-02   1.9071426855817464e-02   1.4644521586255840e-02   1.1324342290511500e-02   1.3906703812280156e-02   2.2760517099988352e-02   3.0138692091160241e-02   3.4565598735014337e-02   3.8623595804734359e-02   4.1574866900637095e-02   4.2681592874454381e-02   4.1943773726186226e-02   3.7147960256782991e-02   2.6449604595574296e-02   1.7595792682158572e-02   1.7595792682158572e-02   2.5342878621757010e-02   3.0876511239428396e-02   2.9400875691477028e-02   2.4605059473488851e-02   2.2760517099988352e-02   2.7556330569391586e-02   3.8623595804734359e-02   4.8584132317674902e-02   5.4486674509480366e-02   5.9282487978883594e-02   6.5185030170689065e-02   6.9243029988994023e-02   6.8874120414859949e-02   6.3340487797188566e-02   5.7069036031249021e-02   5.5224493657748522e-02   5.8913578404749520e-02   6.3709397371322640e-02   6.0758126275419905e-02   5.5224493657748522e-02   5.1904312987711712e-02   5.0059770614211213e-02   5.4486674509480366e-02   6.0758126275419905e-02   6.2602668648920404e-02   6.0389216701285831e-02   5.6700126457114940e-02   5.4117764935346285e-02   5.2642132135979867e-02   4.7477409092442559e-02   3.7147960256782991e-02   2.8294146969074795e-02   2.4973969047622929e-02   2.4605059473488851e-02   2.2022697951720197e-02   1.6120157134207204e-02   4.6839830118765883e-03  -3.4320109557768939e-03  -8.4964909043512126e-04   9.4797985427185292e-03   1.9071426855817464e-02   2.3498333499671564e-02   2.3129423925537487e-02   1.8702518655975862e-02   1.3537795612438551e-02   1.0586524516535818e-02   1.0217616316694211e-02   6.8974363338036382e-03   4.3150741248887473e-03   5.4218007858522713e-03   7.2663452207914793e-03   4.3150741248887473e-03  -6.0143726493321076e-03  -1.7450546771662721e-02  -2.4828723137127081e-02  -2.2246361615358427e-02  -1.0810187493027812e-02  -8.4964909043512126e-04  -1.1183148824599717e-04  -5.6454637623442657e-03  -9.3345519450764459e-03  -1.2285823040979176e-02  -1.4499275675759990e-02  -1.8188364545638405e-02  -2.4459813562993003e-02  -2.6304357310785974e-02  -2.5935450485236843e-02  -2.4828723137127081e-02  -2.5935450485236843e-02  -2.6673266884920051e-02  -2.6304357310785974e-02  -2.5566540911102765e-02  -2.3721995789017319e-02  -2.1877452041224349e-02  -2.1877452041224349e-02  -2.5197631336968687e-02  -2.7779992858737342e-02  -2.8148902432871419e-02  -2.8148902432871419e-02  -2.9624537980822784e-02  -3.1837989928457364e-02  -3.5158170598494173e-02  -3.7740532120262828e-02  -4.0691803216165556e-02  -4.2167438764116924e-02  -4.4011981137617423e-02  -4.7332161807654233e-02  -4.9914520580837944e-02  -4.9914520580837944e-02  -4.2905255163800136e-02  -3.2575809076725519e-02  -2.7042176459054129e-02  -2.6673266884920051e-02  -2.6673266884920051e-02  -2.4459813562993003e-02  -2.2615269815200033e-02  -2.5566540911102765e-02  -3.3682535050542806e-02  -4.2167438764116924e-02  -4.5118707111434710e-02  -4.2536345589666055e-02  -4.2905255163800136e-02  -5.0283430154972018e-02  -5.5817062772643408e-02  -5.3234701250874754e-02  -4.4749800285885578e-02  -3.3682535050542806e-02  -2.8148902432871419e-02  -2.8886718832554628e-02  -2.8886718832554628e-02  -2.7042176459054129e-02  -2.5197631336968687e-02  -2.4828723137127081e-02  -3.0362354380505996e-02  -3.8478348519946040e-02  -4.2167438764116924e-02  -3.7740532120262828e-02  -3.2206899502591438e-02  -3.3313625476408724e-02  -3.8478348519946040e-02  -4.1429619615848769e-02  -3.9953984067897401e-02  -3.2944715902274650e-02  -2.6304357310785974e-02  -2.3721995789017319e-02  -2.4459813562993003e-02  -2.7779992858737342e-02  -2.9993447554956861e-02  -3.4051444624676880e-02  -3.8478348519946040e-02  -4.4749800285885578e-02  -5.1759068451508329e-02  -5.1390158877374255e-02  -4.3274164737934211e-02  -3.6633806146445541e-02  -3.3313625476408724e-02  -3.4420351450226018e-02  -3.7371622546128747e-02  -3.6264896572311460e-02  -3.0362354380505996e-02  -2.3721995789017319e-02  -2.0401816493272981e-02  -2.1877452041224349e-02  -2.1508543841382743e-02  -1.6712728997687040e-02  -1.1916914153991334e-02  -1.1548005267003494e-02  -1.7819454971504327e-02  -2.2246361615358427e-02  -1.8926182319614088e-02  -1.1179096380015654e-02  -5.6454637623442657e-03  -6.7521904233077907e-03  -1.2285823040979176e-02  -1.6712728997687040e-02  -9.7034608320642861e-03   3.9461659250471419e-03   9.8487067425601336e-03   6.5285274468157963e-03  -1.9563756225587266e-03  -8.9656430580886039e-03  -1.0441278606039970e-02  -7.4900081972834737e-03  -7.4900081972834737e-03  -1.2654731927967018e-02  -1.4868185249894068e-02  -1.3392549014796465e-02  -9.7034608320642861e-03  -9.7034608320642861e-03  -1.3023640127808623e-02  -1.5974911223711356e-02  -1.5606001649577279e-02  -1.2654731927967018e-02  -1.1916914153991334e-02  -1.3392549014796465e-02  -1.3023640127808623e-02  -8.2278259712591575e-03   5.0528918988644303e-03   2.9031966117342951e-02   6.0758126275419905e-02   8.1785928023703228e-02   8.9164103014875110e-02   9.7649006728449214e-02   1.1461881415559745e-01   1.2716171768747653e-01   1.2900626006097704e-01   1.2199699464393923e-01   1.1056081433729249e-01   9.8386825876717376e-02   8.8057379789642759e-02   7.1825391510762684e-02   4.6739589944174403e-02   2.0547062403768832e-02   2.5707739874184437e-04  -1.4499275675759990e-02  -2.5197631336968687e-02  -3.4420351450226018e-02  -4.3274164737934211e-02  -5.1390158877374255e-02  -5.1390158877374255e-02  -4.4380890711751504e-02  -3.8109441694396902e-02  -3.9953984067897401e-02  -4.7701071381788314e-02  -5.2496887599776491e-02  -4.9914520580837944e-02  -4.4011981137617423e-02  -4.3274164737934211e-02  -4.7701071381788314e-02  -4.9545616503873756e-02  -4.4380890711751504e-02  -3.9585077242348270e-02  -3.5895986998177379e-02  -3.3313625476408724e-02  -3.4789261024360092e-02  -3.9585077242348270e-02  -4.0322893642031482e-02  -4.0691803216165556e-02  -4.8438887781471519e-02  -5.7661610643313800e-02  -6.3195243260985190e-02  -6.2457424112717028e-02  -5.5448153198509334e-02  -5.0283430154972018e-02  -4.9914520580837944e-02  -4.9545616503873756e-02  -4.7701071381788314e-02  -4.6963252233520159e-02  -4.6963252233520159e-02  -4.8069978207337445e-02  -5.3603610825008835e-02  -6.0612881739216529e-02  -6.2826333686851102e-02  -5.9506153016814299e-02  -5.6554881920911564e-02  -6.0243972165082454e-02  -6.7991056730388411e-02  -7.2786870199791645e-02  -7.1680141477389409e-02  -6.7253237582120262e-02  -6.3564147337949378e-02  -6.1350695390314798e-02  -6.0981785816180717e-02  -5.9875062590948373e-02  -5.5817062772643408e-02  -5.1021249303240174e-02  -5.1759068451508329e-02  -5.8768333868546144e-02  -6.4670876060351601e-02  -6.1719604964448872e-02  -5.3972520399142909e-02  -4.6963252233520159e-02  -4.4011981137617423e-02  -4.2536345589666055e-02  -4.0322893642031482e-02  -3.5527080172628248e-02  -2.6304357310785974e-02  -2.1139634267248665e-02  -2.3353087589175713e-02  -3.0362354380505996e-02  -3.6633806146445541e-02  -3.7002712971994672e-02  -3.3682535050542806e-02  -3.3313625476408724e-02  -3.7371622546128747e-02  -4.1429619615848769e-02  -4.5487616685568791e-02  -5.0652339729106099e-02  -5.6923791495045645e-02  -6.2826333686851102e-02  -6.4670876060351601e-02  -5.8768333868546144e-02  -4.1798529189982850e-02  -2.1508543841382743e-02  -1.3392549014796465e-02  -1.6712728997687040e-02  -2.0401816493272981e-02  -1.8557272745480011e-02  -1.7450546771662721e-02  -1.8926182319614088e-02  -2.4828723137127081e-02  -3.2944715902274650e-02  -4.0691803216165556e-02  -4.4011981137617423e-02  -4.4749800285885578e-02  -4.8438887781471519e-02  -5.5079249121545146e-02  -5.6554881920911564e-02  -5.1759068451508329e-02  -4.1798529189982850e-02  -3.4420351450226018e-02  -2.7779992858737342e-02  -1.7450546771662721e-02  -6.7521904233077907e-03  -4.8074037523383875e-04   9.9489482914440945e-04  -1.2185579774229628e-03  -7.8589167406981977e-03  -1.3023640127808623e-02  -8.2278259712591575e-03   2.5707739874184437e-04   2.4705303770957755e-03  -1.9563756225587266e-03  -7.4900081972834737e-03  -1.0072369719052128e-02  -5.2765552189295425e-03   3.9461659250471419e-03   9.4797985427185292e-03   8.3730711946087676e-03   4.3150741248887473e-03   9.9489482914440945e-04  -4.8074037523383875e-04  -4.8074037523383875e-04  -1.2185579774229628e-03  -4.9076463319417014e-03  -6.7521904233077907e-03  -3.4320109557768939e-03  -8.4964909043512126e-04  -1.5874667785175248e-03  -8.4964909043512126e-04   9.9489482914440945e-04   3.2083478074983406e-03   7.6352541077793212e-03   1.6120157134207204e-02   2.3498333499671564e-02   2.6449604595574296e-02   2.5342878621757010e-02   2.4605059473488851e-02   2.4973969047622929e-02   2.4605059473488851e-02   1.9809244629793148e-02   1.2799977838462867e-02   9.8487067425601336e-03   1.5013429786097444e-02   2.0915971977902910e-02   2.0547062403768832e-02   1.4275613386414233e-02   1.1693250490353108e-02   1.7595792682158572e-02   2.9031966117342951e-02   3.8992505378868433e-02   4.4157228422405749e-02   4.6739589944174403e-02   4.7108499518308478e-02   4.4895047570673904e-02   4.3788318848271668e-02   4.3419409274137594e-02   3.7147960256782991e-02   2.6818514169708374e-02   2.0547062403768832e-02   2.3129423925537487e-02   2.7925240143525664e-02   2.9769782517026163e-02   2.6449604595574296e-02   2.2760517099988352e-02   2.3867243073805642e-02   2.6449604595574296e-02   2.8294146969074795e-02   2.7925240143525664e-02   2.3498333499671564e-02   1.6489065334048810e-02   1.0955432716377422e-02   6.5285274468157963e-03  -6.3832815363199496e-03  -2.2615269815200033e-02  -2.9255628406688706e-02  -2.6673266884920051e-02  -2.5935450485236843e-02  -3.2206899502591438e-02  -4.0322893642031482e-02  -4.6594342659386077e-02  -4.8438887781471519e-02  -4.2536345589666055e-02  -3.4420351450226018e-02  -3.2575809076725519e-02  -3.7740532120262828e-02  -4.6594342659386077e-02  -5.2865791676740673e-02  -5.4341429973276990e-02  -5.2865791676740673e-02  -5.2865791676740673e-02  -5.5448153198509334e-02  -5.7661610643313800e-02  -5.7661610643313800e-02  -5.4710339547411065e-02  -5.3234701250874754e-02  -5.6923791495045645e-02  -6.1350695390314798e-02  -6.0981785816180717e-02  -5.3234701250874754e-02  -4.6225435833836946e-02  -4.3274164737934211e-02  -4.2536345589666055e-02  -4.1060710041714694e-02  -4.1060710041714694e-02  -4.0691803216165556e-02  -3.9216167668214195e-02  -3.7371622546128747e-02  -3.7740532120262828e-02  -3.7740532120262828e-02  -3.7002712971994672e-02  -3.8847258094080114e-02  -4.5118707111434710e-02  -5.1759068451508329e-02  -5.7292701069179719e-02  -5.9506153016814299e-02  -5.8399424294412063e-02  -6.0612881739216529e-02  -6.6146508859718026e-02  -7.3155779773925719e-02  -7.9427231539865265e-02  -8.3485225861000337e-02  -8.6067587382768998e-02  -9.3445762373940894e-02  -1.0967775614999087e-01  -1.2554082935756700e-01  -1.3218119069764062e-01  -1.2701646765410329e-01  -1.1926938308879734e-01  -1.1115338345218739e-01  -1.0008611821684463e-01  -8.7912129756269497e-02  -7.3524689348059807e-02  -5.4341429973276990e-02  -3.0731263954640074e-02  -9.7034608320642861e-03   5.4218007858522713e-03   1.5751247560073126e-02   2.6080695021440219e-02   4.1574866900637095e-02   5.9651397553017675e-02   8.2154837597837302e-02   1.1166753756252483e-01   1.4560715241682132e-01   1.8065349049635013e-01   2.1754438194371922e-01   2.6181344288509034e-01   3.1124722686999873e-01   3.6141881900883549e-01   4.1454168774074496e-01   4.7024692898876280e-01   5.2263196757806429e-01   5.6837668880465120e-01   6.0342299390116072e-01   6.1891718502045223e-01   6.1633483449302329e-01   5.9604482440715867e-01   5.4919341293835877e-01   4.7983856692190902e-01   4.1122152905938769e-01   3.5846754241576290e-01   3.2157667295707337e-01   2.9353958930024254e-01   2.6550252763209131e-01   2.3451418937086746e-01   2.0832164808753717e-01   1.8766275591338794e-01   1.6847950203577503e-01   1.4450042919158898e-01   1.1535663330386561e-01   8.7688470215508685e-02   6.8874120414859949e-02   5.7069036031249021e-02   4.5263951647638093e-02   2.9400875691477028e-02   1.6120157134207204e-02   8.0041629947671632e-03   2.1016214901079340e-03  -1.0072369719052128e-02  -2.5566540911102765e-02  -3.7371622546128747e-02  -4.4749800285885578e-02  -4.6225435833836946e-02  -4.5487616685568791e-02  -4.8807797355605601e-02  -5.6554881920911564e-02  -6.5039785634485689e-02  -7.2417960625657571e-02  -7.9058321965731190e-02  -8.5698677808634924e-02  -9.5290310244611279e-02  -1.0414411803514959e-01  -1.0709539462822221e-01  -1.0598866040865008e-01  -1.0709539462822221e-01  -1.0820211785345456e-01  -1.0857102193041875e-01  -1.1152229852349137e-01  -1.1041557529825902e-01  -1.0525085225472171e-01  -9.9717214139880439e-02  -9.7134852618111778e-02  -9.4552491096343130e-02  -9.0494491278038158e-02  -8.6067587382768998e-02  -8.4960864157536661e-02  -8.7543225679305309e-02  -9.4183581522209056e-02  -9.8241575843344128e-02  -9.6765948541147589e-02  -9.3445762373940894e-02  -9.3076858296976706e-02  -9.8610490914648088e-02  -1.0893993700172271e-01  -1.1410466004526001e-01  -1.0820211785345456e-01  -9.6397033469843629e-02  -8.8281039330403571e-02  -8.3485225861000337e-02  -7.9427231539865265e-02  -7.6107050869828455e-02  -7.4262502999158070e-02  -7.3155779773925719e-02  -7.7213774095060805e-02  -8.6436496956903072e-02  -9.2707948722842631e-02  -9.1232310426306307e-02  -8.4223045009268499e-02  -7.9796135616829453e-02  -8.0165045190963527e-02  -8.2009593061633926e-02  -8.1271773913365764e-02  -7.5369231721560306e-02  -6.8728875878656573e-02  -6.5777604782753837e-02  -6.6515418433852100e-02  -6.8359966304522499e-02  -6.7622147156254336e-02  -6.2826333686851102e-02  -5.9506153016814299e-02  -6.9466689529754835e-02  -8.5698677808634924e-02  -9.6397033469843629e-02  -9.8610490914648088e-02  -9.7872671766379940e-02  -9.5659214321575467e-02  -9.2339039148708557e-02  -9.0494491278038158e-02  -8.7543225679305309e-02  -7.9058321965731190e-02  -7.0204508678022998e-02  -6.6146508859718026e-02  -6.4670876060351601e-02  -6.3564147337949378e-02  -6.2457424112717028e-02  -6.1719604964448872e-02  -6.3564147337949378e-02  -7.0573418252157072e-02  -7.8320502817463028e-02  -8.1271773913365764e-02  -7.9796135616829453e-02  -8.0165045190963527e-02  -8.3485225861000337e-02  -8.7543225679305309e-02  -8.9756677626939882e-02  -8.8281039330403571e-02  -8.5698677808634924e-02  -8.3854135435134425e-02  -8.4591954583402573e-02  -8.7174316105171235e-02  -8.5329768234500850e-02  -7.9796135616829453e-02  -7.5369231721560306e-02  -8.0165045190963527e-02  -9.3076858296976706e-02  -1.0414411803514959e-01  -1.0598866040865008e-01  -1.0045503328814859e-01  -9.8610490914648088e-02  -1.0229957566164909e-01  -1.0561975633168590e-01  -1.0156175651338094e-01  -9.0494491278038158e-02  -8.2378497138598114e-02  -7.6844870018096617e-02  -7.0573418252157072e-02  -6.4670876060351601e-02  -6.2826333686851102e-02  -6.4670876060351601e-02  -6.6884328007986188e-02  -7.0204508678022998e-02  -7.6107050869828455e-02  -7.9796135616829453e-02  -7.9796135616829453e-02  -7.9796135616829453e-02  -8.2009593061633926e-02  -8.4591954583402573e-02  -8.6067587382768998e-02  -8.3116316286866262e-02  -7.2786870199791645e-02  -5.8768333868546144e-02  -4.6594342659386077e-02  -4.1060710041714694e-02  -4.3643074312068292e-02  -5.0283430154972018e-02  -5.6923791495045645e-02  -6.3564147337949378e-02  -7.2786870199791645e-02  -7.9796135616829453e-02  -7.8320502817463028e-02  -7.1311237400425220e-02  -6.7622147156254336e-02  -6.9097779955620761e-02  -7.2049051051523497e-02  -7.2417960625657571e-02  -6.6884328007986188e-02  -5.7661610643313800e-02  -4.8438887781471519e-02  -4.4749800285885578e-02  -4.3274164737934211e-02  -3.9953984067897401e-02  -3.5895986998177379e-02  -3.7002712971994672e-02  -4.3643074312068292e-02  -4.9545616503873756e-02  -5.1759068451508329e-02  -5.1390158877374255e-02  -5.0283430154972018e-02  -5.1021249303240174e-02  -5.6554881920911564e-02  -6.3933056912083452e-02  -6.6884328007986188e-02  -6.0981785816180717e-02  -4.9914520580837944e-02  -4.1060710041714694e-02  -3.4051444624676880e-02  -2.7042176459054129e-02  -2.2984179389334111e-02  -2.2615269815200033e-02  -2.4090905363151397e-02  -2.8517812007005497e-02  -3.3682535050542806e-02  -3.2206899502591438e-02  -2.8148902432871419e-02  -2.7042176459054129e-02  -2.9624537980822784e-02  -3.1100173528774151e-02  -3.1100173528774151e-02  -2.7411086033188207e-02  -1.9295090519455695e-02  -1.1548005267003494e-02  -9.7034608320642861e-03  -9.7034608320642861e-03  -8.5967348582469977e-03  -5.6454637623442657e-03  -8.4964909043512126e-04   6.8974363338036382e-03   1.4644521586255840e-02   2.5342878621757010e-02   4.7108499518308478e-02   7.2932114735995021e-02   8.9901922163143258e-02   9.7649006728449214e-02   1.0392045299721887e-01   1.1572553738082980e-01   1.3158862158274570e-01   1.4597606748812528e-01   1.5372315205343123e-01   1.5114079053166260e-01   1.3970461022501585e-01   1.2457935616570788e-01   1.0797845281552383e-01   8.8057379789642759e-02   6.4447211022420903e-02   3.9730321778551646e-02   2.3129423925537487e-02   1.7595792682158572e-02   1.6489065334048810e-02   1.2799977838462867e-02   8.3730711946087676e-03   3.5772570380593004e-03   2.8394392640836170e-03   7.6352541077793212e-03   1.3537795612438551e-02   1.8333610456134256e-02   2.0547062403768832e-02   2.0915971977902910e-02   2.3129423925537487e-02   2.8663056543208873e-02   3.7516869830917073e-02   4.0099231352685727e-02   3.7885776656466204e-02   3.6041234282965705e-02   3.6410141108514836e-02   4.0468138178234858e-02   4.6370680370040322e-02   4.9321951465943058e-02   5.0797584265309476e-02   5.3379945787078130e-02   6.0389216701285831e-02   6.5553939744823139e-02   6.4816120596554977e-02   6.1864849500652248e-02   6.2602668648920404e-02   6.6660668467225376e-02   7.1456481936628596e-02   7.4407753032531332e-02   7.0718662788360448e-02   6.4816120596554977e-02   6.2602668648920404e-02   6.3709397371322640e-02   6.1127035849553986e-02   5.5593403231882596e-02   5.1904312987711712e-02   5.4117764935346285e-02   6.1864849500652248e-02   6.9611934065958211e-02   7.3301024310129109e-02   7.2932114735995021e-02   6.8874120414859949e-02   6.7398482118323638e-02   6.8505210840725875e-02   7.1087572362494522e-02   6.9243029988994023e-02   5.7437945605383095e-02   4.6370680370040322e-02   4.3050502448588455e-02   4.1574866900637095e-02   3.0876511239428396e-02   1.5382339360231522e-02   5.4218007858522713e-03   4.6839830118765883e-03   8.7419800815966096e-03   1.3906703812280156e-02   1.5751247560073126e-02   1.3537795612438551e-02   9.4797985427185292e-03   8.0041629947671632e-03   9.1108889685844515e-03   8.7419800815966096e-03   2.8394392640836170e-03  -6.3832815363199496e-03  -1.1916914153991334e-02  -1.3761457901784306e-02  -1.3761457901784306e-02  -1.4130367475918384e-02  -1.7819454971504327e-02  -2.2246361615358427e-02  -2.2984179389334111e-02  -1.6343819423552963e-02  -1.0072369719052128e-02  -9.3345519450764459e-03  -1.0441278606039970e-02  -1.0441278606039970e-02  -8.5967348582469977e-03  -6.7521904233077907e-03  -5.2765552189295425e-03  -8.2278259712591575e-03  -1.5237093449735672e-02  -2.3721995789017319e-02  -3.0731263954640074e-02  -3.4051444624676880e-02  -3.2944715902274650e-02  -2.8148902432871419e-02  -2.3353087589175713e-02  -1.7819454971504327e-02  -1.3392549014796465e-02  -1.1916914153991334e-02  -1.1548005267003494e-02  -1.1916914153991334e-02  -1.3761457901784306e-02  -1.5974911223711356e-02  -1.6343819423552963e-02  -1.8557272745480011e-02  -2.6304357310785974e-02  -3.2206899502591438e-02  -3.1469083102908225e-02  -2.9255628406688706e-02  -2.8886718832554628e-02  -2.9624537980822784e-02  -2.9255628406688706e-02  -2.6304357310785974e-02  -1.9663998719297297e-02  -1.4130367475918384e-02  -1.3761457901784306e-02  -1.5237093449735672e-02  -1.7819454971504327e-02  -1.7450546771662721e-02  -1.1179096380015654e-02  -3.8009198427647354e-03  -1.2185579774229628e-03  -4.9076463319417014e-03  -8.5967348582469977e-03  -1.0072369719052128e-02  -1.1916914153991334e-02  -1.4868185249894068e-02  -1.7081637197528643e-02  -1.7819454971504327e-02  -1.5606001649577279e-02  -8.5967348582469977e-03  -1.5874667785175248e-03   2.4705303770957755e-03   5.7907096728401133e-03   1.1693250490353108e-02   1.5751247560073126e-02   1.5751247560073126e-02   1.3168886038304474e-02   6.1596185598279552e-03  -8.4964909043512126e-04  -2.6941933106411301e-03  -1.1183148824599717e-04  -8.4964909043512126e-04  -8.2278259712591575e-03  -1.4499275675759990e-02  -1.5606001649577279e-02  -1.0441278606039970e-02  -3.4320109557768939e-03   1.3638037161322510e-03   6.2598628572968593e-04  -2.3252844665999283e-03  -4.1698285579660184e-03  -4.5387374449538595e-03  -5.2765552189295425e-03  -6.7521904233077907e-03  -1.0810187493027812e-02  -1.2285823040979176e-02  -8.5967348582469977e-03  -5.6454637623442657e-03  -9.3345519450764459e-03  -1.7450546771662721e-02  -2.3353087589175713e-02  -2.2246361615358427e-02  -1.3023640127808623e-02  -3.4320109557768939e-03   2.4705303770957755e-03   5.7907096728401133e-03   8.3730711946087676e-03   8.7419800815966096e-03   8.7419800815966096e-03   5.0528918988644303e-03  -3.4320109557768939e-03  -1.1916914153991334e-02  -1.4499275675759990e-02  -1.1548005267003494e-02  -4.5387374449538595e-03  -2.3252844665999283e-03  -4.1698285579660184e-03  -5.6454637623442657e-03   2.5707739874184437e-04   1.2062160064487185e-02   2.4236149899354773e-02   3.0876511239428396e-02   2.9400875691477028e-02   2.3867243073805642e-02   2.3129423925537487e-02   2.4605059473488851e-02   2.6080695021440219e-02   2.4973969047622929e-02   2.2391607525854274e-02   1.9809244629793148e-02   1.6489065334048810e-02   8.7419800815966096e-03  -1.2185579774229628e-03  -9.7034608320642861e-03  -1.3023640127808623e-02  -5.6454637623442657e-03   6.8974363338036382e-03   1.4644521586255840e-02   1.5013429786097444e-02   1.1324342290511500e-02   1.0217616316694211e-02   1.0955432716377422e-02   1.0586524516535818e-02   5.7907096728401133e-03  -6.3832815363199496e-03  -1.8188364545638405e-02  -2.4090905363151397e-02  -2.7411086033188207e-02  -3.1837989928457364e-02  -3.8478348519946040e-02  -4.4380890711751504e-02  -4.2905255163800136e-02  -3.3682535050542806e-02  -2.8517812007005497e-02  -2.8517812007005497e-02  -2.9993447554956861e-02  -3.1469083102908225e-02  -3.3682535050542806e-02  -3.7740532120262828e-02  -4.2167438764116924e-02  -4.8069978207337445e-02  -5.5448153198509334e-02  -5.7661610643313800e-02  -5.5817062772643408e-02  -5.3972520399142909e-02  -5.7292701069179719e-02  -6.3195243260985190e-02  -6.6884328007986188e-02  -6.5408695208619763e-02  -5.6554881920911564e-02  -4.5856526259702865e-02  -4.0691803216165556e-02  -4.5118707111434710e-02  -5.2127978025642410e-02  -5.8399424294412063e-02  -6.2457424112717028e-02  -6.5777604782753837e-02  -7.2417960625657571e-02  -7.6844870018096617e-02  -7.6107050869828455e-02  -7.5000322147426218e-02  -7.8689412391597116e-02  -8.3116316286866262e-02  -8.2378497138598114e-02  -7.5738141295694381e-02  -6.3195243260985190e-02  -4.9176706929739675e-02  -4.2536345589666055e-02  -4.4380890711751504e-02  -5.1021249303240174e-02  -5.5448153198509334e-02  -5.5079249121545146e-02  -5.5448153198509334e-02  -6.0612881739216529e-02  -6.8359966304522499e-02  -7.0573418252157072e-02  -6.6515418433852100e-02  -5.9875062590948373e-02  -5.5448153198509334e-02  -5.4341429973276990e-02  -5.2496887599776491e-02  -4.8438887781471519e-02  -4.1798529189982850e-02  -3.7002712971994672e-02  -3.9585077242348270e-02  -4.5118707111434710e-02  -4.9914520580837944e-02  -5.2127978025642410e-02  -5.3972520399142909e-02  -5.8030514720277988e-02  -6.3195243260985190e-02  -6.9097779955620761e-02  -7.2417960625657571e-02  -7.0204508678022998e-02  -6.2457424112717028e-02  -5.9137243442680218e-02  -6.1350695390314798e-02  -6.5408695208619763e-02  -6.7622147156254336e-02  -6.1350695390314798e-02  -5.1021249303240174e-02  -4.4380890711751504e-02  -4.0691803216165556e-02  -4.0691803216165556e-02  -4.2536345589666055e-02  -4.2905255163800136e-02  -4.3643074312068292e-02  -5.2127978025642410e-02  -6.2088514538582953e-02  -6.2088514538582953e-02  -5.6923791495045645e-02  -5.6554881920911564e-02  -6.1350695390314798e-02  -6.6515418433852100e-02  -6.9835599103888910e-02  -7.0204508678022998e-02  -6.7622147156254336e-02  -6.4301966486217527e-02  -6.3564147337949378e-02  -6.8359966304522499e-02  -7.0942327826291146e-02  -6.7622147156254336e-02  -6.5408695208619763e-02  -7.1680141477389409e-02  -8.3485225861000337e-02  -8.7174316105171235e-02  -7.9796135616829453e-02  -7.0942327826291146e-02  -7.0573418252157072e-02  -7.7213774095060805e-02  -8.2378497138598114e-02  -8.2378497138598114e-02  -7.5369231721560306e-02  -6.3933056912083452e-02  -5.7292701069179719e-02  -5.8399424294412063e-02  -6.2088514538582953e-02  -6.1719604964448872e-02  -5.8768333868546144e-02  -5.5079249121545146e-02  -5.7292701069179719e-02  -6.2457424112717028e-02  -6.3933056912083452e-02  -6.1719604964448872e-02  -5.9875062590948373e-02  -6.3564147337949378e-02  -6.8728875878656573e-02  -6.7622147156254336e-02  -6.0981785816180717e-02  -5.2496887599776491e-02  -4.9545616503873756e-02  -5.1390158877374255e-02  -5.2865791676740673e-02  -5.2865791676740673e-02  -5.0283430154972018e-02  -4.4749800285885578e-02  -3.9585077242348270e-02  -4.3643074312068292e-02  -5.1759068451508329e-02  -5.2865791676740673e-02  -4.7332161807654233e-02  -4.1429619615848769e-02  -3.9953984067897401e-02  -4.0691803216165556e-02  -3.8847258094080114e-02  -3.3682535050542806e-02  -2.6673266884920051e-02  -2.0032908293431375e-02  -1.7819454971504327e-02  -1.9663998719297297e-02  -2.1139634267248665e-02  -1.6712728997687040e-02  -1.0810187493027812e-02  -1.0441278606039970e-02  -1.5237093449735672e-02  -1.4868185249894068e-02  -9.3345519450764459e-03  -5.2765552189295425e-03  -6.0143726493321076e-03  -8.2278259712591575e-03  -1.1916914153991334e-02  -1.3761457901784306e-02  -1.2654731927967018e-02  -1.1179096380015654e-02  -1.3392549014796465e-02  -1.6712728997687040e-02  -1.9663998719297297e-02  -1.9663998719297297e-02  -2.0770726067407059e-02  -2.5935450485236843e-02  -3.5527080172628248e-02  -4.5118707111434710e-02  -4.9545616503873756e-02  -4.8438887781471519e-02  -4.4011981137617423e-02  -3.7371622546128747e-02  -3.1100173528774151e-02  -2.6304357310785974e-02  -1.8557272745480011e-02  -7.1210993102956326e-03   2.1016214901079340e-03   6.1596185598279552e-03   7.2663452207914793e-03   5.7907096728401133e-03   5.7907096728401133e-03   1.0217616316694211e-02   1.6489065334048810e-02   2.1284881552036988e-02   2.5711785447306141e-02   3.0507601665294318e-02   3.7516869830917073e-02   3.8623595804734359e-02   2.9400875691477028e-02   1.9071426855817464e-02   1.3168886038304474e-02   1.0586524516535818e-02   1.1324342290511500e-02   1.1693250490353108e-02   1.0586524516535818e-02   6.1596185598279552e-03   1.7327126031200925e-03   9.9489482914440945e-04   2.1016214901079340e-03  -1.1183148824599717e-04  -8.5967348582469977e-03  -1.3761457901784306e-02  -1.2285823040979176e-02  -9.7034608320642861e-03  -1.4130367475918384e-02  -2.1139634267248665e-02  -2.2984179389334111e-02  -1.7819454971504327e-02  -6.3832815363199496e-03   2.8394392640836170e-03   6.5285274468157963e-03   2.8394392640836170e-03  -2.3252844665999283e-03  -5.6454637623442657e-03  -7.8589167406981977e-03  -9.7034608320642861e-03  -1.4130367475918384e-02  -1.9663998719297297e-02  -2.1877452041224349e-02  -2.2615269815200033e-02  -2.6673266884920051e-02  -3.1469083102908225e-02  -3.3682535050542806e-02  -3.4789261024360092e-02  -3.2944715902274650e-02  -2.5566540911102765e-02  -1.8926182319614088e-02  -1.7819454971504327e-02  -1.7081637197528643e-02  -1.5974911223711356e-02  -1.3392549014796465e-02  -9.7034608320642861e-03  -7.1210993102956326e-03  -1.0072369719052128e-02  -1.5237093449735672e-02  -1.5974911223711356e-02  -1.4130367475918384e-02  -1.2285823040979176e-02  -1.2285823040979176e-02  -1.3392549014796465e-02  -1.4130367475918384e-02  -1.0441278606039970e-02  -7.8589167406981977e-03  -1.1548005267003494e-02  -1.8188364545638405e-02  -2.1139634267248665e-02  -1.8557272745480011e-02  -1.0441278606039970e-02  -8.4964909043512126e-04   5.0528918988644303e-03   6.5285274468157963e-03   1.5013429786097444e-02   3.3827779586746182e-02   5.1904312987711712e-02   6.4078306945456714e-02   7.8096837779532330e-02   9.2484283684911905e-02   1.0539609129375518e-01   1.1720117567736611e-01   1.1904571805086661e-01   1.1314317585906114e-01   1.0170700654675419e-01   8.1417018449569140e-02   5.7069036031249021e-02   3.3089963187062969e-02   8.3730711946087676e-03  -2.0770726067407059e-02  -4.9545616503873756e-02  -6.6515418433852100e-02  -7.3155779773925719e-02  -7.6107050869828455e-02  -7.9058321965731190e-02  -7.9427231539865265e-02  -7.3524689348059807e-02  -5.9875062590948373e-02  -3.9216167668214195e-02  -1.9295090519455695e-02  -4.9076463319417014e-03   5.4218007858522713e-03   1.9440336429951542e-02   4.1574866900637095e-02   6.9243029988994023e-02   1.0096918739848602e-01   1.2974407920924519e-01   1.5704333272346804e-01   1.8544930946292326e-01   2.1533091350457498e-01   2.4668817783144259e-01   2.7915215438920277e-01   3.1346067332046340e-01   3.5477845766876187e-01   4.0827025246631510e-01   4.6655784424176178e-01   5.1931180889670703e-01   5.6394975192636276e-01   6.0674319655987707e-01   6.4363408800724620e-01   6.6466186226968005e-01   6.6503078833532381e-01   6.4437189616117452e-01   5.9456920809930192e-01   5.2595217023678065e-01   4.6323764158304542e-01   4.1491061380638872e-01   3.7801972235901959e-01   3.4740028817475987e-01   3.1899430044096494e-01   2.9058833469584949e-01   2.6292015511598288e-01   2.3635873174436797e-01   2.0905947823014512e-01   1.8212912879288645e-01   1.5630551357519989e-01   1.3085080243447753e-01   1.1166753756252483e-01   9.9493549101949713e-02   8.6212831918972374e-02   7.1456481936628596e-02   6.2233759074786330e-02   5.5593403231882596e-02   4.1574866900637095e-02   2.2391607525854274e-02   9.1108889685844515e-03   2.5707739874184437e-04  -4.9076463319417014e-03  -4.5387374449538595e-03  -1.1183148824599717e-04   2.5707739874184437e-04  -7.4900081972834737e-03  -1.9663998719297297e-02  -2.7411086033188207e-02  -2.9624537980822784e-02  -3.0362354380505996e-02  -3.3682535050542806e-02  -3.6633806146445541e-02  -3.4789261024360092e-02  -3.4420351450226018e-02  -3.7740532120262828e-02  -4.2167438764116924e-02  -4.7701071381788314e-02  -5.1021249303240174e-02  -4.9176706929739675e-02  -4.3643074312068292e-02  -3.7371622546128747e-02  -3.5158170598494173e-02  -3.7002712971994672e-02  -3.7740532120262828e-02  -3.5895986998177379e-02  -3.3313625476408724e-02  -3.2944715902274650e-02  -3.6264896572311460e-02  -3.9585077242348270e-02  -3.7371622546128747e-02  -3.5527080172628248e-02  -3.7740532120262828e-02  -4.3274164737934211e-02  -4.8807797355605601e-02  -4.8807797355605601e-02  -4.2167438764116924e-02  -3.7002712971994672e-02  -3.8478348519946040e-02  -4.2536345589666055e-02  -4.3643074312068292e-02  -4.1060710041714694e-02  -3.6633806146445541e-02  -3.1837989928457364e-02  -3.0362354380505996e-02  -3.0731263954640074e-02  -3.1100173528774151e-02  -3.0362354380505996e-02  -3.2206899502591438e-02  -3.8478348519946040e-02  -4.7701071381788314e-02  -5.2127978025642410e-02  -4.7701071381788314e-02  -3.8847258094080114e-02  -3.1469083102908225e-02  -2.9624537980822784e-02  -2.9993447554956861e-02  -3.1837989928457364e-02  -3.3682535050542806e-02  -3.4420351450226018e-02  -3.6633806146445541e-02  -4.3643074312068292e-02  -4.8069978207337445e-02  -4.6963252233520159e-02  -4.7332161807654233e-02  -5.3234701250874754e-02  -5.9137243442680218e-02  -6.1719604964448872e-02  -5.8768333868546144e-02  -4.9176706929739675e-02  -3.7740532120262828e-02  -3.2575809076725519e-02  -3.6264896572311460e-02  -3.8847258094080114e-02  -3.2944715902274650e-02  -2.1877452041224349e-02  -1.3392549014796465e-02  -1.1548005267003494e-02  -1.2654731927967018e-02  -9.7034608320642861e-03   9.9489482914440945e-04   1.3168886038304474e-02   1.6489065334048810e-02   1.2431068264328790e-02   6.5285274468157963e-03   4.3150741248887473e-03   7.6352541077793212e-03   1.1324342290511500e-02   9.8487067425601336e-03   8.0041629947671632e-03   1.3906703812280156e-02   2.3129423925537487e-02   2.7925240143525664e-02   2.7556330569391586e-02   2.2022697951720197e-02   1.2431068264328790e-02   1.3638037161322510e-03  -7.8589167406981977e-03  -1.4868185249894068e-02  -2.2615269815200033e-02  -3.3682535050542806e-02  -4.1798529189982850e-02  -4.1429619615848769e-02  -3.0731263954640074e-02  -1.7819454971504327e-02  -1.2285823040979176e-02  -1.0072369719052128e-02  -9.3345519450764459e-03  -8.2278259712591575e-03  -4.5387374449538595e-03  -4.8074037523383875e-04  -3.0631021546823319e-03  -8.2278259712591575e-03  -6.0143726493321076e-03  -8.4964909043512126e-04  -1.5874667785175248e-03  -7.1210993102956326e-03  -1.3761457901784306e-02  -1.8557272745480011e-02  -1.5237093449735672e-02  -7.1210993102956326e-03  -1.5874667785175248e-03  -3.8009198427647354e-03  -1.0441278606039970e-02  -1.2654731927967018e-02  -9.7034608320642861e-03  -8.5967348582469977e-03  -1.4868185249894068e-02  -2.2984179389334111e-02  -2.4828723137127081e-02  -1.9663998719297297e-02  -1.3023640127808623e-02  -1.3023640127808623e-02  -1.7450546771662721e-02  -1.9295090519455695e-02  -1.6712728997687040e-02  -8.9656430580886039e-03   1.3638037161322510e-03   8.7419800815966096e-03   1.3168886038304474e-02   1.8702518655975862e-02   2.4236149899354773e-02   2.6818514169708374e-02   2.5342878621757010e-02   1.9440336429951542e-02   1.2799977838462867e-02   8.7419800815966096e-03   6.8974363338036382e-03   5.0528918988644303e-03   9.9489482914440945e-04  -5.6454637623442657e-03  -9.7034608320642861e-03  -6.7521904233077907e-03   2.8394392640836170e-03   1.2799977838462867e-02   1.9440336429951542e-02   2.3498333499671564e-02   2.7556330569391586e-02   3.4934508309148418e-02   4.3050502448588455e-02   4.6001770795906248e-02   4.1574866900637095e-02   3.7147960256782991e-02   3.6779050682648917e-02   3.8254686230600278e-02   3.6410141108514836e-02   3.1614327639111608e-02   2.9769782517026163e-02   3.5303415134697549e-02   4.7477409092442559e-02   6.2602668648920404e-02   7.5883385831897757e-02   8.1048108875435065e-02   7.9941385650202729e-02   7.8465747353666418e-02   8.1785928023703228e-02   8.5843922344838300e-02   8.2523747171971376e-02   7.2194301084896759e-02   6.2602668648920404e-02   6.0020307127151749e-02   6.1495939926518174e-02   6.1495939926518174e-02   6.1127035849553986e-02   6.3709397371322640e-02   6.8874120414859949e-02   7.5514476257763682e-02   8.0679199301300991e-02   8.0310295224336803e-02   7.5145566683629608e-02   6.9980843640092286e-02   7.2194301084896759e-02   7.9572476076068641e-02   8.5843922344838300e-02   8.6581741493106448e-02   8.4368289545471875e-02   8.2154837597837302e-02   8.1417018449569140e-02   7.9203566501934566e-02   7.5145566683629608e-02   6.8505210840725875e-02   6.4078306945456714e-02   6.8136301266591787e-02   8.2523747171971376e-02   9.3959921981448216e-02   9.5804464354948715e-02   9.5066645206680567e-02   9.8755729953681565e-02   1.0392045299721887e-01   1.0871627196379199e-01   1.1092972940859645e-01   1.0945409111206014e-01   1.0724063366725568e-01   1.0908517604075618e-01   1.1203645263382880e-01   1.0797845281552383e-01   9.8386825876717376e-02   9.3222102833180068e-02   9.5066645206680567e-02   1.0392045299721887e-01   1.1461881415559745e-01   1.1904571805086661e-01   1.1830789890259845e-01   1.1388099500732930e-01   1.1166753756252483e-01   1.1498771823256164e-01   1.2162807957263526e-01   1.2421044109440392e-01   1.2052135634740292e-01   1.2015244127609895e-01   1.2605498346790442e-01   1.3195752565970989e-01   1.3158862158274570e-01   1.2789952584140490e-01   1.2384153701743973e-01   1.2125917549567107e-01   1.2679280261617257e-01   1.3712224870324718e-01   1.4523824833985713e-01   1.4818951393858998e-01   1.4634497156508947e-01   1.4486933326855317e-01   1.4302479089505266e-01   1.3970461022501585e-01   1.3232644073101385e-01   1.2421044109440392e-01   1.1683227160040192e-01   1.0724063366725568e-01   9.3959921981448216e-02   8.1785928023703228e-02   7.2932114735995021e-02   6.7767391692457712e-02   7.0349753214226374e-02   7.9572476076068641e-02   8.7688470215508685e-02   8.9533012589009184e-02   8.6581741493106448e-02   8.5475018267874112e-02   8.8057379789642759e-02   9.0639741311411420e-02   8.9901922163143258e-02   8.5475018267874112e-02   7.8834656927800492e-02   7.3301024310129109e-02   6.9980843640092286e-02   6.8874120414859949e-02   6.6660668467225376e-02   6.3709397371322640e-02   6.1495939926518174e-02   6.5922849318957213e-02   7.3301024310129109e-02   7.7727928205398256e-02   7.8834656927800492e-02   7.9572476076068641e-02   7.8834656927800492e-02   7.5514476257763682e-02   7.2194301084896759e-02   6.7767391692457712e-02   6.1495939926518174e-02   5.3748855361212211e-02   5.1166493839443557e-02   5.6331216882980865e-02   6.2602668648920404e-02   6.5553939744823139e-02   6.7767391692457712e-02   7.2932114735995021e-02   8.0310295224336803e-02   8.3261560823069639e-02   8.1048108875435065e-02   7.9203566501934566e-02   7.9203566501934566e-02   7.9941385650202729e-02   8.2154837597837302e-02   8.3261560823069639e-02   7.8096837779532330e-02   7.1456481936628596e-02   7.1825391510762684e-02   7.4776662606665420e-02   7.4038843458397258e-02   7.1087572362494522e-02   6.9611934065958211e-02   6.8136301266591787e-02   6.9611934065958211e-02   7.6621204980165919e-02   8.4368289545471875e-02   8.7319560641374611e-02   8.5475018267874112e-02   8.1048108875435065e-02   7.8465747353666418e-02   7.7359024128434067e-02   7.2932114735995021e-02   6.4447211022420903e-02   6.0020307127151749e-02   6.0389216701285831e-02   6.2971578223054478e-02   6.1864849500652248e-02   5.5224493657748522e-02   4.7846318666576633e-02   4.2681592874454381e-02   4.6001770795906248e-02   5.5962312806016677e-02   6.2971578223054478e-02   6.4816120596554977e-02   6.4816120596554977e-02   6.8136301266591787e-02   7.1087572362494522e-02   7.2563205161860947e-02   6.8505210840725875e-02   6.0389216701285831e-02   5.4117764935346285e-02   5.6331216882980865e-02   6.3340487797188566e-02   6.5553939744823139e-02   6.1127035849553986e-02   5.6700126457114940e-02   5.7806855179517176e-02   6.5185030170689065e-02   7.4776662606665420e-02   8.1048108875435065e-02   8.4737199119605949e-02   8.5106108693740037e-02   8.5475018267874112e-02   8.7688470215508685e-02   9.1008645388375609e-02   9.1008645388375609e-02   8.7319560641374611e-02   8.6212831918972374e-02   8.7319560641374611e-02   8.7688470215508685e-02   8.4368289545471875e-02   7.8834656927800492e-02   7.8834656927800492e-02   8.6212831918972374e-02   9.8386825876717376e-02   1.0760954873855964e-01   1.0945409111206014e-01   1.0428936806852283e-01   1.0060028332152184e-01   1.0355154892025469e-01   1.0945409111206014e-01   1.1129863348556064e-01   1.0502718721679100e-01   9.9124645024985525e-02   9.9124645024985525e-02   9.8017921799753188e-02   9.6173368431912903e-02   9.5066645206680567e-02   9.3959921981448216e-02   9.4328826058412404e-02   9.9493549101949713e-02   1.0797845281552383e-01   1.1166753756252483e-01   1.1019191026032830e-01   1.0834736788682781e-01   1.0908517604075618e-01   1.0982299518902433e-01   1.0724063366725568e-01   1.0170700654675419e-01   9.5435549283644755e-02   9.2853187761876094e-02   9.5435549283644755e-02   1.0023136825021788e-01   1.0170700654675419e-01   9.8386825876717376e-02   9.5066645206680567e-02   9.4697741129716378e-02   9.9124645024985525e-02   1.0207591062371837e-01   1.0060028332152184e-01   1.0023136825021788e-01   1.0207591062371837e-01   1.0281372977198652e-01   1.0244482569502233e-01   1.0613391044202333e-01   1.1166753756252483e-01   1.2199699464393923e-01   1.3859788699978351e-01   1.5150969460862679e-01   1.5925677917393274e-01   1.6995514033231132e-01   1.8286693694681483e-01   1.9577875554999788e-01   2.0573929756010831e-01   2.1237965890018193e-01   2.1348637113107449e-01   2.0721493585664461e-01   1.9540985147303369e-01   1.7844004404588545e-01   1.5851896002566460e-01   1.3933570614805166e-01   1.2052135634740292e-01   1.0096918739848602e-01   8.4368289545471875e-02   7.5514476257763682e-02   7.1087572362494522e-02   6.4816120596554977e-02   6.0758126275419905e-02   5.8175764753651250e-02   5.5593403231882596e-02   5.6700126457114940e-02   6.2233759074786330e-02   6.7398482118323638e-02   6.8136301266591787e-02   6.6660668467225376e-02   7.2932114735995021e-02   8.1048108875435065e-02   8.2523747171971376e-02   7.6252295406031831e-02   6.8136301266591787e-02   6.4447211022420903e-02   6.4447211022420903e-02   6.8505210840725875e-02   7.1087572362494522e-02   6.8874120414859949e-02   6.4447211022420903e-02   6.2971578223054478e-02   6.7398482118323638e-02   7.4776662606665420e-02   8.2523747171971376e-02   9.2484283684911905e-02   1.0170700654675419e-01   1.0871627196379199e-01   1.1240535671079299e-01   1.1203645263382880e-01   1.0687172959029149e-01   1.0170700654675419e-01   9.9493549101949713e-02   9.9493549101949713e-02   1.0096918739848602e-01   1.0133809147545021e-01   1.0170700654675419e-01   1.0060028332152184e-01   1.0023136825021788e-01   1.0318264484329050e-01   1.0502718721679100e-01   1.0244482569502233e-01   9.9862464173253687e-02   9.8386825876717376e-02   9.9862464173253687e-02   1.0465827214548702e-01   1.0797845281552383e-01   1.0576500636505914e-01   1.0133809147545021e-01   1.0096918739848602e-01   1.0502718721679100e-01   1.0465827214548702e-01   1.0096918739848602e-01   9.9124645024985525e-02   1.0096918739848602e-01   1.0613391044202333e-01   1.1203645263382880e-01   1.1867681397390242e-01   1.2162807957263526e-01   1.1867681397390242e-01   1.1351209093036511e-01   1.1166753756252483e-01   1.1277427178209695e-01   1.1203645263382880e-01   1.0871627196379199e-01   1.0724063366725568e-01   1.0834736788682781e-01   1.0613391044202333e-01   1.0023136825021788e-01   9.6542283503216877e-02   9.7649006728449214e-02   1.0281372977198652e-01   1.1424991007863326e-01   1.2716171768747653e-01   1.3158862158274570e-01   1.2753062176444072e-01   1.2162807957263526e-01   1.2015244127609895e-01   1.2199699464393923e-01   1.2236589872090342e-01   1.1867681397390242e-01   1.1314317585906114e-01   1.1203645263382880e-01   1.1646335652909795e-01   1.2089026042436711e-01   1.1720117567736611e-01   1.0650281451898752e-01   9.6542283503216877e-02   9.5066645206680567e-02   1.0355154892025469e-01   1.1314317585906114e-01   1.1941463312217057e-01   1.2273480279786761e-01   1.2568607939094023e-01   1.2789952584140490e-01   1.2863734498967308e-01   1.2679280261617257e-01   1.1830789890259845e-01   1.0797845281552383e-01   1.0355154892025469e-01   1.0650281451898752e-01   1.1092972940859645e-01   1.1203645263382880e-01   1.1019191026032830e-01   1.1019191026032830e-01   1.1535663330386561e-01   1.2236589872090342e-01   1.2753062176444072e-01   1.3121970651144171e-01   1.3417098310451436e-01   1.3822898292281932e-01   1.4376261004332080e-01   1.4966515223512628e-01   1.5114079053166260e-01   1.4634497156508947e-01   1.4044242937328399e-01   1.3564662140105066e-01   1.3011298328620938e-01   1.2236589872090342e-01   1.1535663330386561e-01   1.1056081433729249e-01   1.1129863348556064e-01   1.2089026042436711e-01   1.3195752565970989e-01   1.3822898292281932e-01   1.4007352529631981e-01   1.4044242937328399e-01   1.4376261004332080e-01   1.4818951393858998e-01   1.4929624815816209e-01   1.4560715241682132e-01   1.4191806766982032e-01   1.4265588681808847e-01   1.4376261004332080e-01   1.4486933326855317e-01   1.4782060986162579e-01   1.4929624815816209e-01   1.5114079053166260e-01   1.5778114087739642e-01   1.6774168288750685e-01   1.7696440574934913e-01   1.7991567134808198e-01   1.7917786319415360e-01   1.7696440574934913e-01   1.7696440574934913e-01   1.7807112897458147e-01   1.7511986337584864e-01   1.6811059795881084e-01   1.6442150221747004e-01   1.6700386373923870e-01   1.7364422507931232e-01   1.7807112897458147e-01   1.7770222489761728e-01   1.7475094830454466e-01   1.7438204422758047e-01   1.8249803286985064e-01   1.9725439384653418e-01   2.0610820163707250e-01   2.0905947823014512e-01   2.0795274401057298e-01   2.0463256334053617e-01   2.0315692504399988e-01   2.0278802096703569e-01   1.9688548976956999e-01   1.8692494775945956e-01   1.8139130964461828e-01   1.8471150130899489e-01   1.9024512842949637e-01   1.8950729828688845e-01   1.8176022471592226e-01   1.7807112897458147e-01   1.8323586301245856e-01   1.9430311725346155e-01   2.0610820163707250e-01   2.1459310535064660e-01   2.1754438194371922e-01   2.1606874364718293e-01   2.1385529719671822e-01   2.1311746705411030e-01   2.1274856297714612e-01   2.0500146741750036e-01   1.9319638303388945e-01   1.8803165999035212e-01   1.8840058605599588e-01   1.8729385183642375e-01   1.8249803286985064e-01   1.7696440574934913e-01   1.7327532100234813e-01   1.7364422507931232e-01   1.7991567134808198e-01   1.8618711761685164e-01   1.8508040538595907e-01   1.8028458641938594e-01   1.7290640593104417e-01   1.6515932136573822e-01   1.5778114087739642e-01   1.4818951393858998e-01   1.3859788699978351e-01   1.3453988718147852e-01   1.3712224870324718e-01   1.4486933326855317e-01   1.5003405631209046e-01   1.4560715241682132e-01   1.3638442955497904e-01   1.2974407920924519e-01   1.3011298328620938e-01   1.3232644073101385e-01   1.2826844091270889e-01   1.2162807957263526e-01   1.1757007975433030e-01   1.1757007975433030e-01   1.1978353719913476e-01   1.2162807957263526e-01   1.1646335652909795e-01   1.0871627196379199e-01   1.0318264484329050e-01   1.0281372977198652e-01   1.0207591062371837e-01   9.5435549283644755e-02   8.6950651067240536e-02   8.2523747171971376e-02   8.6212831918972374e-02   9.2115379607947731e-02   9.4328826058412404e-02   9.3591006910144256e-02   9.1746464536643757e-02   9.2484283684911905e-02   9.7649006728449214e-02   1.0502718721679100e-01   1.1019191026032830e-01   1.0797845281552383e-01   1.0133809147545021e-01   1.0023136825021788e-01   1.0613391044202333e-01   1.1314317585906114e-01   1.1535663330386561e-01   1.1424991007863326e-01   1.1314317585906114e-01   1.1498771823256164e-01   1.2089026042436711e-01   1.2642389853920838e-01   1.2753062176444072e-01   1.2421044109440392e-01   1.2199699464393923e-01   1.2347262194613576e-01   1.2642389853920838e-01   1.2384153701743973e-01   1.1240535671079299e-01   1.0133809147545021e-01   9.9493549101949713e-02   1.0023136825021788e-01   9.5804464354948715e-02   8.6212831918972374e-02   7.5883385831897757e-02   7.0718662788360448e-02   7.6252295406031831e-02   8.9901922163143258e-02   1.0502718721679100e-01   1.1904571805086661e-01   1.3380206803321038e-01   1.5114079053166260e-01   1.6884840611273921e-01   1.8544930946292326e-01   1.9725439384653418e-01   2.0758383993360879e-01   2.2307800906422073e-01   2.4816381612797889e-01   2.8025886662009530e-01   3.0903375843085451e-01   3.3448846957157685e-01   3.6437009560190814e-01   4.0126096506059772e-01   4.4737456837546929e-01   4.9939072487648617e-01   5.5066902924621552e-01   6.0268518574723229e-01   6.5765261884132176e-01   7.1188219980412382e-01   7.6131596180035255e-01   7.9341107825850765e-01   7.9931363144465284e-01   7.8861525929193454e-01   7.6906310133735745e-01   7.2995874145084416e-01   6.6503078833532381e-01   5.9272466572580151e-01   5.3480595603863934e-01   4.9680837434905728e-01   4.7504274795533591e-01   4.5770401446254394e-01   4.3224930332182160e-01   3.9867861453316883e-01   3.6732135020630119e-01   3.3891538446118580e-01   3.1087830080435497e-01   2.8321014321316795e-01   2.5627979377590926e-01   2.3266964699736697e-01   2.1643764772414711e-01   2.0795274401057298e-01   2.0278802096703569e-01   1.9651656370392626e-01   1.8729385183642375e-01   1.7143076763450785e-01   1.5187860967993075e-01   1.4302479089505266e-01   1.4597606748812528e-01   1.5003405631209046e-01   1.5077187546035861e-01   1.4892733308685813e-01   1.4597606748812528e-01   1.4450042919158898e-01   1.4228697174678451e-01   1.3121970651144171e-01   1.1793899482563426e-01   1.1056081433729249e-01   1.0908517604075618e-01   1.0687172959029149e-01   1.0060028332152184e-01   9.1746464536643757e-02   8.3630470397203727e-02   8.2892656746105450e-02   8.8795193440741035e-02   9.3959921981448216e-02   9.2115379607947731e-02   8.7688470215508685e-02   8.6212831918972374e-02   8.8426289363776847e-02   9.2853187761876094e-02   9.2484283684911905e-02   8.7319560641374611e-02   8.3261560823069639e-02   8.4368289545471875e-02   8.6212831918972374e-02   8.5475018267874112e-02   8.2154837597837302e-02   8.0310295224336803e-02   8.2892656746105450e-02   8.8795193440741035e-02   9.7649006728449214e-02   1.0539609129375518e-01   1.0797845281552383e-01   1.0539609129375518e-01   9.9124645024985525e-02   9.3959921981448216e-02   9.4328826058412404e-02   9.5435549283644755e-02   8.9533012589009184e-02   8.2154837597837302e-02   8.1785928023703228e-02   8.3999379971337801e-02   8.2523747171971376e-02   7.8834656927800492e-02   7.5514476257763682e-02   7.4038843458397258e-02   7.8465747353666418e-02   8.6950651067240536e-02   9.3222102833180068e-02   9.4697741129716378e-02   9.6542283503216877e-02   1.0133809147545021e-01   1.0982299518902433e-01   1.1609445245213376e-01   1.1388099500732930e-01   1.0724063366725568e-01   1.0576500636505914e-01   1.0576500636505914e-01   1.0428936806852283e-01   9.9862464173253687e-02   9.3591006910144256e-02   8.7688470215508685e-02   8.5475018267874112e-02   8.9533012589009184e-02   9.4697741129716378e-02   9.6173368431912903e-02   9.5804464354948715e-02   9.9124645024985525e-02   1.0760954873855964e-01   1.1498771823256164e-01   1.1793899482563426e-01   1.1757007975433030e-01   1.1830789890259845e-01   1.2089026042436711e-01   1.2494826024267207e-01   1.2937516413794123e-01   1.2900626006097704e-01   1.2421044109440392e-01   1.2015244127609895e-01   1.2494826024267207e-01   1.3453988718147852e-01   1.4081134444458798e-01   1.4081134444458798e-01   1.3822898292281932e-01   1.3343316395624619e-01   1.2716171768747653e-01   1.2015244127609895e-01   1.1572553738082980e-01   1.1424991007863326e-01   1.1498771823256164e-01   1.1978353719913476e-01   1.2531716431963627e-01   1.2789952584140490e-01   1.2568607939094023e-01   1.2347262194613576e-01   1.2568607939094023e-01   1.3306425987928200e-01   1.4118024852155217e-01   1.4228697174678451e-01   1.3749116377455117e-01   1.3085080243447753e-01   1.2531716431963627e-01   1.2347262194613576e-01   1.2347262194613576e-01   1.1757007975433030e-01   1.0945409111206014e-01   1.1092972940859645e-01   1.2052135634740292e-01   1.2974407920924519e-01   1.3306425987928200e-01   1.3048189835751337e-01   1.2384153701743973e-01   1.2015244127609895e-01   1.2347262194613576e-01   1.3085080243447753e-01   1.3749116377455117e-01   1.4044242937328399e-01   1.4007352529631981e-01   1.3859788699978351e-01   1.3933570614805166e-01   1.3749116377455117e-01   1.3158862158274570e-01   1.2937516413794123e-01   1.3380206803321038e-01   1.3933570614805166e-01   1.4634497156508947e-01   1.5077187546035861e-01   1.5187860967993075e-01   1.5040297138339442e-01   1.5187860967993075e-01   1.5925677917393274e-01   1.6663495966227451e-01   1.7364422507931232e-01   1.8434257524335113e-01   2.0057457451657099e-01   2.2086456261375603e-01   2.3967891241440478e-01   2.5148399679801570e-01   2.5886216629201769e-01   2.6882270830212812e-01   2.8099669676270328e-01   2.9353958930024254e-01   2.9722867404724357e-01   2.9169504692674209e-01   2.8025886662009530e-01   2.6808487815952020e-01   2.5775543207244556e-01   2.4558144361187045e-01   2.2566035959164960e-01   2.0463256334053617e-01   1.8876949013296007e-01   1.7807112897458147e-01   1.7622658660108098e-01   1.8249803286985064e-01   1.8618711761685164e-01   1.8544930946292326e-01   1.8544930946292326e-01   1.8766275591338794e-01   1.8544930946292326e-01   1.7880894812284964e-01   1.7364422507931232e-01   1.7364422507931232e-01   1.7770222489761728e-01   1.8692494775945956e-01   1.9799220200046255e-01   2.0463256334053617e-01   2.0389475518660780e-01   2.0094347859353517e-01   2.0278802096703569e-01   2.0942838230710931e-01   2.1385529719671822e-01   2.0979728638407349e-01   2.0389475518660780e-01   2.0352585110964361e-01   2.0537039348314412e-01   2.0389475518660780e-01   2.0168128674746355e-01   2.0020567043960680e-01   2.0020567043960680e-01   2.0463256334053617e-01   2.1717547786675503e-01   2.2898054026168640e-01   2.3451418937086746e-01   2.3635873174436797e-01   2.3894108227179683e-01   2.4336799716140578e-01   2.4705708190840678e-01   2.4631927375447840e-01   2.4041672056833316e-01   2.3414526330522373e-01   2.3193181685475903e-01   2.3451418937086746e-01   2.3783437004090427e-01   2.3894108227179683e-01   2.4115455071094108e-01   2.4558144361187045e-01   2.5185290087497991e-01   2.5738652799548140e-01   2.6107561274248237e-01   2.6476469748948339e-01   2.6808487815952020e-01   2.6882270830212812e-01   2.6660923986298390e-01   2.6402688933555502e-01   2.6033780458855404e-01   2.5554198562198088e-01   2.5591088969894510e-01   2.5996890051158983e-01   2.6033780458855404e-01   2.5295961310587245e-01   2.4410580531533416e-01   2.3857217819483265e-01   2.3930998634876102e-01   2.4595034768883464e-01   2.5222180495194407e-01   2.5627979377590926e-01   2.5664871984155302e-01   2.5554198562198088e-01   2.5849326221505353e-01   2.6328908118162664e-01   2.6771597408255604e-01   2.6660923986298390e-01   2.6402688933555502e-01   2.6808487815952020e-01   2.7583197371916596e-01   2.7767651609266647e-01   2.7251179304912915e-01   2.6992942053302071e-01   2.7398743134566544e-01   2.8210343098227536e-01   2.9058833469584949e-01   2.9464632351981468e-01   2.9243287706935001e-01   2.8542358966363263e-01   2.7693870793873809e-01   2.7288069712609331e-01   2.7103615475259285e-01   2.6550252763209131e-01   2.5959997444594607e-01   2.5701762391851724e-01   2.6033780458855404e-01   2.6328908118162664e-01   2.6181344288509034e-01   2.5443525140240875e-01   2.4299909308444159e-01   2.3451418937086746e-01   2.3525199752479584e-01   2.3894108227179683e-01   2.3746544397526054e-01   2.3230072093172321e-01   2.2787382803079384e-01   2.2492255143772122e-01   2.2307800906422073e-01   2.2197127484464860e-01   2.1828219009764760e-01   2.1311746705411030e-01   2.1311746705411030e-01   2.1828219010033051e-01   2.2270910498725655e-01   2.1975782839418392e-01   2.0979728638407349e-01   2.0168128674746355e-01   2.0352585110964361e-01   2.1348637113107449e-01   2.2197127484464860e-01   2.2492255143772122e-01   2.2639818973425754e-01   2.2529145551468541e-01   2.2270910498725655e-01   2.1865109417461179e-01   2.1201073283453817e-01   2.0094347859353517e-01   1.9245857487996107e-01   1.9172076672603269e-01   1.9762329792349836e-01   1.9909893622003469e-01   1.9467202133042574e-01   1.9098293658342474e-01   1.9135184066038893e-01   1.9688548976956999e-01   2.0500146741750036e-01   2.1016619046103768e-01   2.1201073283453817e-01   2.0869057415318093e-01   2.0500146741750036e-01   2.0500146741750036e-01   2.0869057415318093e-01   2.0942838230710931e-01   2.0352585110964361e-01   1.9873003214307050e-01   1.9873003214307050e-01   1.9909893622003469e-01   1.9873003214307050e-01   2.0131238267049936e-01   2.0426365926357198e-01   2.0426365926357198e-01   2.0869057415318093e-01   2.1754438194371922e-01   2.2307800906422073e-01   2.2344691314118492e-01   2.2455364736075703e-01   2.2676709381122173e-01   2.2713599788818592e-01   2.2602928565729336e-01   2.2307800906422073e-01   2.1754438194371922e-01   2.0869057415318093e-01   2.0315692504399988e-01   2.0315692504399988e-01   2.0168128674746355e-01   1.9725439384653418e-01   1.9688548976956999e-01   2.0278802096703569e-01   2.1791328602068341e-01   2.3340745515129535e-01   2.4226126294183364e-01   2.4668817783144259e-01   2.5000835850147940e-01   2.4890162428190726e-01   2.4484363545794208e-01   2.3967891241440478e-01   2.3266964699736697e-01   2.2529145551468541e-01   2.2049563654811230e-01   2.2012673247114811e-01   2.1828219009764760e-01   2.1237965890018193e-01   2.0795274401057298e-01   2.0684600979100087e-01   2.0942838230710931e-01   2.1606874364718293e-01   2.2307800906422073e-01   2.2676709381122173e-01   2.2529145551468541e-01   2.1938892431721974e-01   2.1237965890018193e-01   2.0795274401057298e-01   2.0315692504399988e-01   1.9356530909953318e-01   1.8692494775945956e-01   1.8544930946292326e-01   1.8508040538595907e-01   1.8249803286985064e-01   1.7954676727111779e-01   1.7991567134808198e-01   1.8212912879288645e-01   1.8692494775945956e-01   1.8840058605599588e-01   1.8581821353988745e-01   1.8655604368249537e-01   1.9208967080299688e-01   1.9762329792349836e-01   1.9909893622003469e-01   1.9614765962696207e-01   1.8950729828688845e-01   1.8028458641938594e-01   1.7327532100234813e-01   1.6884840611273921e-01   1.6884840611273921e-01   1.7290640593104417e-01   1.7696440574934913e-01   1.7991567134808198e-01   1.8102240556765409e-01   1.8581821353988745e-01   1.9393421317649737e-01   2.0020567043960680e-01   2.0057457451657099e-01   1.9836112806610631e-01   1.9651656370392626e-01   1.9688548976956999e-01   2.0094347859353517e-01   2.0352585110964361e-01   2.0241911689007150e-01   1.9799220200046255e-01   1.9172076672603269e-01   1.8471150130899489e-01   1.7844004404588545e-01   1.7438204422758047e-01   1.7290640593104417e-01   1.7844004404588545e-01   1.8987622435253218e-01   1.9577875554999788e-01   1.9651656370392626e-01   1.9762329792349836e-01   2.0094347859353517e-01   2.0278802096703569e-01   2.0389475518660780e-01   2.0352585110964361e-01   1.9873003214307050e-01   1.9540985147303369e-01   1.9614765962696207e-01   1.9504094739606950e-01   1.8876949013296007e-01   1.8397367116638694e-01   1.8176022471592226e-01   1.7954676727111779e-01   1.8139130964461828e-01   1.8618711761685164e-01   1.8655604368249537e-01   1.8212912879288645e-01   1.7807112897458147e-01   1.7880894812284964e-01   1.8803165999035212e-01   1.9614765962696207e-01   1.9467202133042574e-01   1.8692494775945956e-01   1.8139130964461828e-01   1.8028458641938594e-01   1.7659550167238494e-01   1.6700386373923870e-01   1.5667441765216408e-01   1.5150969460862679e-01   1.5593659850389593e-01   1.6737277881054266e-01   1.7696440574934913e-01   1.7991567134808198e-01   1.7696440574934913e-01   1.7327532100234813e-01   1.7179968270581183e-01   1.7106186355754366e-01   1.6995514033231132e-01   1.6405259814050585e-01   1.5593659850389593e-01   1.5261641783385912e-01   1.5482987527866360e-01   1.5741223680043223e-01   1.5482987527866360e-01   1.4855842900989394e-01   1.4486933326855317e-01   1.5040297138339442e-01   1.5815005594870041e-01   1.5925677917393274e-01   1.5409205613039542e-01   1.4818951393858998e-01   1.4597606748812528e-01   1.4486933326855317e-01   1.4376261004332080e-01   1.4191806766982032e-01   1.3490880225278251e-01   1.2753062176444072e-01   1.2568607939094023e-01   1.2642389853920838e-01   1.2531716431963627e-01   1.2531716431963627e-01   1.2605498346790442e-01   1.2900626006097704e-01   1.3527770632974670e-01   1.4007352529631981e-01   1.4044242937328399e-01   1.3933570614805166e-01   1.3749116377455117e-01   1.3822898292281932e-01   1.4044242937328399e-01   1.4007352529631981e-01   1.3232644073101385e-01   1.2015244127609895e-01   1.1461881415559745e-01   1.1683227160040192e-01   1.2015244127609895e-01   1.2162807957263526e-01   1.2199699464393923e-01   1.2457935616570788e-01   1.3048189835751337e-01   1.3970461022501585e-01   1.4966515223512628e-01   1.5556769442693175e-01   1.5593659850389593e-01   1.5409205613039542e-01   1.5556769442693175e-01   1.5815005594870041e-01   1.5741223680043223e-01   1.5040297138339442e-01   1.4302479089505266e-01   1.4154915259851636e-01   1.4339370596635662e-01   1.4191806766982032e-01   1.3933570614805166e-01   1.3712224870324718e-01   1.3638442955497904e-01   1.4154915259851636e-01   1.5150969460862679e-01   1.5593659850389593e-01   1.5409205613039542e-01   1.5077187546035861e-01   1.4966515223512628e-01   1.5372315205343123e-01   1.5999459832220089e-01   1.6036351339350485e-01   1.5667441765216408e-01   1.5556769442693175e-01   1.5815005594870041e-01   1.5704333272346804e-01   1.5077187546035861e-01   1.4376261004332080e-01   1.3749116377455117e-01   1.3749116377455117e-01   1.4486933326855317e-01   1.5335423698212727e-01   1.5593659850389593e-01   1.5298533290516309e-01   1.4818951393858998e-01   1.4450042919158898e-01   1.4486933326855317e-01   1.4782060986162579e-01   1.4486933326855317e-01   1.3675334462628300e-01   1.3490880225278251e-01   1.4118024852155217e-01   1.4560715241682132e-01   1.4191806766982032e-01   1.3822898292281932e-01   1.4081134444458798e-01   1.4745169479032180e-01   1.5446097120169941e-01   1.5667441765216408e-01   1.5409205613039542e-01   1.5003405631209046e-01   1.4523824833985713e-01   1.4450042919158898e-01   1.4745169479032180e-01   1.4450042919158898e-01   1.3675334462628300e-01   1.3306425987928200e-01   1.3527770632974670e-01   1.3933570614805166e-01   1.4118024852155217e-01   1.3933570614805166e-01   1.3343316395624619e-01   1.2605498346790442e-01   1.2273480279786761e-01   1.2568607939094023e-01   1.3158862158274570e-01   1.3380206803321038e-01   1.2863734498967308e-01   1.2236589872090342e-01   1.2199699464393923e-01   1.2642389853920838e-01   1.2826844091270889e-01   1.2236589872090342e-01   1.1757007975433030e-01   1.1757007975433030e-01   1.2125917549567107e-01   1.2236589872090342e-01   1.2052135634740292e-01   1.1757007975433030e-01   1.1830789890259845e-01   1.2789952584140490e-01   1.4154915259851636e-01   1.4892733308685813e-01   1.4966515223512628e-01   1.4745169479032180e-01   1.4302479089505266e-01   1.4081134444458798e-01   1.4118024852155217e-01   1.3712224870324718e-01   1.3011298328620938e-01   1.2789952584140490e-01   1.3306425987928200e-01   1.3786006785151536e-01   1.3490880225278251e-01   1.2716171768747653e-01   1.2347262194613576e-01   1.2900626006097704e-01   1.3859788699978351e-01   1.4671388663639343e-01   1.5077187546035861e-01   1.5409205613039542e-01   1.5999459832220089e-01   1.6737277881054266e-01   1.7475094830454466e-01   1.7807112897458147e-01   1.7327532100234813e-01   1.6552823643704218e-01   1.6257695984396955e-01   1.6294587491527351e-01   1.5962569424523670e-01   1.5150969460862679e-01   1.4228697174678451e-01   1.3859788699978351e-01   1.4228697174678451e-01   1.4929624815816209e-01   1.5077187546035861e-01   1.4782060986162579e-01   1.4191806766982032e-01   1.3601552547801485e-01   1.3527770632974670e-01   1.3712224870324718e-01   1.3380206803321038e-01   1.2642389853920838e-01   1.2125917549567107e-01   1.2015244127609895e-01   1.2089026042436711e-01   1.1904571805086661e-01   1.1683227160040192e-01   1.1646335652909795e-01   1.2494826024267207e-01   1.4413152511462479e-01   1.7143076763450785e-01   1.9946784029699888e-01   2.1569983957021874e-01   2.2234020091029236e-01   2.3230072093172321e-01   2.4742598598537097e-01   2.5775543207244556e-01   2.5554198562198088e-01   2.4410580531533416e-01   2.3156291277779484e-01   2.2344691314118492e-01   2.1385529719671822e-01   1.9393421317649737e-01   1.6589714051400636e-01   1.3712224870324718e-01   1.1683227160040192e-01   1.0539609129375518e-01   9.3959921981448216e-02   8.3261560823069639e-02   7.4407753032531332e-02   6.8874120414859949e-02   6.4816120596554977e-02   6.0758126275419905e-02   5.8913578404749520e-02   5.5224493657748522e-02   5.0428680188345287e-02   5.1535403413577631e-02   5.8544674327785332e-02   6.4447211022420903e-02   6.7029572544189564e-02   6.9611934065958211e-02   7.4776662606665420e-02   8.0310295224336803e-02   8.5475018267874112e-02   8.8057379789642759e-02   8.7688470215508685e-02   8.6950651067240536e-02   8.8426289363776847e-02   9.1008645388375609e-02   9.2115379607947731e-02   8.6950651067240536e-02   7.6990114554299993e-02   7.0718662788360448e-02   7.0349753214226374e-02   7.3301024310129109e-02   7.5145566683629608e-02   7.5145566683629608e-02   7.5145566683629608e-02   7.4776662606665420e-02   7.9203566501934566e-02   8.8426289363776847e-02   9.2115379607947731e-02   8.9533012589009184e-02   8.6212831918972374e-02   8.5843922344838300e-02   8.5843922344838300e-02   8.0679199301300991e-02   6.8874120414859949e-02   5.4855584083614441e-02   4.2681592874454381e-02   3.2352144038794814e-02   1.7964700882000178e-02   1.3638037161322510e-03  -1.1179096380015654e-02  -1.6712728997687040e-02  -1.3761457901784306e-02  -1.9563756225587266e-03   1.1693250490353108e-02   2.6449604595574296e-02   4.4526137996539823e-02   6.8505210840725875e-02   9.2115379607947731e-02   1.0982299518902433e-01   1.2494826024267207e-01   1.4007352529631981e-01   1.5999459832220089e-01   1.8692494775945956e-01   2.1828219009764760e-01   2.4631927375447840e-01   2.7140505882955701e-01   3.0128668485988830e-01   3.3817755431857782e-01   3.8466008369909321e-01   4.4036532494711106e-01   4.9828399065691403e-01   5.5103795531185928e-01   6.0047171730808813e-01   6.4842990697381930e-01   6.9786366897004815e-01   7.4250165597706297e-01   7.6279157810820930e-01   7.5615126074549477e-01   7.3475456041741727e-01   6.9601912659654763e-01   6.3514918429367206e-01   5.6321194377243433e-01   5.0012853303041449e-01   4.5585947208904343e-01   4.2524005989346331e-01   3.9904754059881259e-01   3.6621463797540865e-01   3.3006157667064745e-01   2.9796650418985149e-01   2.6992942053302071e-01   2.4521253953490627e-01   2.1791328602068341e-01   1.8766275591338794e-01   1.6036351339350485e-01   1.4118024852155217e-01   1.3085080243447753e-01   1.2089026042436711e-01   1.0576500636505914e-01   8.9164103014875110e-02   7.5883385831897757e-02   6.4078306945456714e-02   5.4117764935346285e-02   5.0059770614211213e-02   4.9321951465943058e-02   4.5632861221772167e-02   3.8992505378868433e-02   3.1614327639111608e-02   2.6449604595574296e-02   2.3498333499671564e-02   1.9071426855817464e-02   9.1108889685844515e-03  -3.4320109557768939e-03  -1.3761457901784306e-02  -1.8188364545638405e-02  -1.7081637197528643e-02  -1.6343819423552963e-02  -2.0770726067407059e-02  -2.1508543841382743e-02  -1.2285823040979176e-02   3.2083478074983406e-03   1.2799977838462867e-02   1.5382339360231522e-02   1.6489065334048810e-02   1.5013429786097444e-02   1.1324342290511500e-02   1.0217616316694211e-02   8.3730711946087676e-03  -8.4964909043512126e-04  -1.1548005267003494e-02  -1.4130367475918384e-02  -1.1179096380015654e-02  -1.1548005267003494e-02  -1.6712728997687040e-02  -1.9663998719297297e-02  -1.7450546771662721e-02  -1.1179096380015654e-02  -4.5387374449538595e-03   2.5707739874184437e-04   1.7327126031200925e-03  -8.4964909043512126e-04  -3.4320109557768939e-03  -7.1210993102956326e-03  -1.1179096380015654e-02  -1.7081637197528643e-02  -2.1139634267248665e-02  -1.8188364545638405e-02  -1.3392549014796465e-02  -1.3761457901784306e-02  -2.1139634267248665e-02  -2.7042176459054129e-02  -2.5566540911102765e-02  -1.7081637197528643e-02  -5.2765552189295425e-03   2.4705303770957755e-03   3.2083478074983406e-03   6.2598628572968593e-04  -6.0143726493321076e-03  -1.0072369719052128e-02  -1.0441278606039970e-02  -1.1548005267003494e-02  -1.4868185249894068e-02  -1.8926182319614088e-02  -2.0401816493272981e-02  -2.1139634267248665e-02  -2.1139634267248665e-02  -1.9295090519455695e-02  -1.8926182319614088e-02  -2.2984179389334111e-02  -2.5197631336968687e-02  -2.1877452041224349e-02  -1.8926182319614088e-02  -2.0401816493272981e-02  -2.3353087589175713e-02  -2.2615269815200033e-02  -1.7450546771662721e-02  -1.0810187493027812e-02  -8.2278259712591575e-03  -1.1548005267003494e-02  -1.6712728997687040e-02  -1.9663998719297297e-02  -2.2246361615358427e-02  -2.6673266884920051e-02  -3.0362354380505996e-02  -3.1100173528774151e-02  -2.8517812007005497e-02  -2.2246361615358427e-02  -1.8188364545638405e-02  -2.0401816493272981e-02  -2.4828723137127081e-02  -2.8148902432871419e-02  -2.9255628406688706e-02  -2.9624537980822784e-02  -2.7779992858737342e-02  -2.8517812007005497e-02  -3.1100173528774151e-02  -3.0362354380505996e-02  -2.8148902432871419e-02  -2.9624537980822784e-02  -3.5158170598494173e-02  -4.0322893642031482e-02  -4.2167438764116924e-02  -4.1060710041714694e-02  -3.7740532120262828e-02  -3.5527080172628248e-02  -3.4789261024360092e-02  -3.7002712971994672e-02  -4.2167438764116924e-02  -4.4749800285885578e-02  -4.3274164737934211e-02  -4.4380890711751504e-02  -4.9914520580837944e-02  -5.3972520399142909e-02  -5.4341429973276990e-02  -5.1021249303240174e-02  -4.9914520580837944e-02  -5.5079249121545146e-02  -6.0243972165082454e-02  -6.0981785816180717e-02  -5.5079249121545146e-02  -4.3274164737934211e-02  -3.2944715902274650e-02  -2.9624537980822784e-02  -3.0731263954640074e-02  -3.1100173528774151e-02  -3.4051444624676880e-02  -4.4380890711751504e-02  -5.7292701069179719e-02  -6.5777604782753837e-02  -6.7622147156254336e-02  -6.5039785634485689e-02  -6.2826333686851102e-02  -6.3564147337949378e-02  -6.5777604782753837e-02  -6.9097779955620761e-02  -7.1311237400425220e-02  -6.7991056730388411e-02  -6.3933056912083452e-02  -6.5408695208619763e-02  -7.2417960625657571e-02  -7.8320502817463028e-02  -7.8320502817463028e-02  -7.2417960625657571e-02  -6.6146508859718026e-02  -6.8359966304522499e-02  -7.6475960443962529e-02  -7.9427231539865265e-02  -7.6475960443962529e-02  -7.4631412573292144e-02  -7.7951593243328954e-02  -8.1271773913365764e-02  -8.2009593061633926e-02  -7.7951593243328954e-02  -7.2049051051523497e-02  -6.9466689529754835e-02  -7.1680141477389409e-02  -7.3893598922193882e-02  -7.3893598922193882e-02  -7.1311237400425220e-02  -6.3564147337949378e-02  -5.4710339547411065e-02  -5.2865791676740673e-02  -5.8768333868546144e-02  -6.1719604964448872e-02  -5.9137243442680218e-02  -5.6554881920911564e-02  -5.7661610643313800e-02  -5.9506153016814299e-02  -6.0981785816180717e-02  -5.8399424294412063e-02  -4.9545616503873756e-02  -4.0322893642031482e-02  -3.5527080172628248e-02  -3.4051444624676880e-02  -3.2206899502591438e-02  -3.0731263954640074e-02  -3.0362354380505996e-02  -3.0362354380505996e-02  -2.9624537980822784e-02  -2.9624537980822784e-02  -2.9255628406688706e-02  -2.9993447554956861e-02  -3.4051444624676880e-02  -3.9953984067897401e-02  -4.2905255163800136e-02  -3.9953984067897401e-02  -2.9255628406688706e-02  -1.5237093449735672e-02  -5.6454637623442657e-03  -2.6941933106411301e-03  -2.6941933106411301e-03   2.5707739874184437e-04   6.1596185598279552e-03   1.0586524516535818e-02   8.0041629947671632e-03  -1.5874667785175248e-03  -1.0072369719052128e-02  -1.4499275675759990e-02  -1.6343819423552963e-02  -1.9295090519455695e-02  -2.2246361615358427e-02  -2.1139634267248665e-02  -1.4499275675759990e-02  -3.8009198427647354e-03   4.6839830118765883e-03   9.4797985427185292e-03   1.5382339360231522e-02   2.0915971977902910e-02   2.3129423925537487e-02   2.2760517099988352e-02   2.0915971977902910e-02   1.3906703812280156e-02   5.0528918988644303e-03   2.1016214901079340e-03   9.9489482914440945e-04  -3.4320109557768939e-03  -5.2765552189295425e-03  -2.6941933106411301e-03   9.9489482914440945e-04   6.8974363338036382e-03   1.8702518655975862e-02   3.1614327639111608e-02   3.9361412204417572e-02   4.1574866900637095e-02   4.3050502448588455e-02   4.5263951647638093e-02   4.7477409092442559e-02   4.0837047752368932e-02   2.7187420995257509e-02   2.0547062403768832e-02   2.4973969047622929e-02   2.8663056543208873e-02   2.7187420995257509e-02   2.4236149899354773e-02   2.3129423925537487e-02   2.7925240143525664e-02   3.9361412204417572e-02   5.1904312987711712e-02   5.6700126457114940e-02   5.2642132135979867e-02   4.8584132317674902e-02   4.6739589944174403e-02   4.4895047570673904e-02   3.9730321778551646e-02   3.2352144038794814e-02   2.5711785447306141e-02   2.2760517099988352e-02   2.0547062403768832e-02   1.5751247560073126e-02   8.7419800815966096e-03   2.4705303770957755e-03  -1.2185579774229628e-03  -1.5874667785175248e-03   2.4705303770957755e-03   6.1596185598279552e-03   5.7907096728401133e-03   2.1016214901079340e-03  -2.6941933106411301e-03  -5.6454637623442657e-03  -5.2765552189295425e-03  -4.5387374449538595e-03  -8.9656430580886039e-03  -1.8188364545638405e-02  -2.7779992858737342e-02  -3.3313625476408724e-02  -3.8847258094080114e-02  -4.6225435833836946e-02  -5.3972520399142909e-02  -5.7661610643313800e-02  -5.6923791495045645e-02  -5.3972520399142909e-02  -5.1759068451508329e-02  -4.9176706929739675e-02  -4.5487616685568791e-02  -4.3274164737934211e-02  -3.9953984067897401e-02  -3.7371622546128747e-02  -4.1060710041714694e-02  -5.3972520399142909e-02  -6.5777604782753837e-02  -7.0942327826291146e-02  -7.3893598922193882e-02  -7.7582683669194880e-02  -8.2378497138598114e-02  -8.7543225679305309e-02  -8.9018858478671734e-02  -8.5698677808634924e-02  -8.3116316286866262e-02  -8.4591954583402573e-02  -8.9387768052805808e-02  -9.2339039148708557e-02  -9.0863400852172233e-02  -8.8649948904537659e-02  -8.7174316105171235e-02  -8.8649948904537659e-02  -9.1970129574574469e-02  -9.2339039148708557e-02  -9.0125587201073970e-02  -8.9756677626939882e-02  -9.5290310244611279e-02  -1.0414411803514959e-01  -1.1299793682002768e-01  -1.1963828716576153e-01  -1.1963828716576153e-01  -1.1410466004526001e-01  -1.0967775614999087e-01  -1.0746429870518640e-01  -1.0414411803514959e-01  -1.0229957566164909e-01  -1.0377521395818540e-01  -1.1004666022695506e-01  -1.2037610631402967e-01  -1.2849210595063962e-01  -1.2849210595063962e-01  -1.2111392546229784e-01  -1.1484247919352818e-01  -1.1410466004526001e-01  -1.1890047901183315e-01  -1.2148284053360180e-01  -1.1594920241876051e-01  -1.0561975633168590e-01  -9.7872671766379940e-02  -9.4552491096343130e-02  -9.4183581522209056e-02  -9.5659214321575467e-02  -9.3814671948074968e-02  -8.8649948904537659e-02  -8.4960864157536661e-02  -8.6805406531037160e-02  -9.0863400852172233e-02  -9.0494491278038158e-02  -8.6805406531037160e-02  -8.8281039330403571e-02  -9.4552491096343130e-02  -1.0082393736511278e-01  -1.0266849073295306e-01  -9.7503756695075966e-02  -8.9756677626939882e-02  -8.3854135435134425e-02  -8.2747406712732188e-02  -8.4591954583402573e-02  -8.5698677808634924e-02  -8.3485225861000337e-02  -8.0165045190963527e-02  -8.2747406712732188e-02  -8.7912129756269497e-02  -8.7912129756269497e-02  -8.0533954765097615e-02  -6.9097779955620761e-02  -5.5079249121545146e-02  -3.7740532120262828e-02  -2.3353087589175713e-02  -1.0441278606039970e-02   8.3730711946087676e-03   3.1614327639111608e-02   5.2642132135979867e-02   6.5553939744823139e-02   6.7398482118323638e-02   5.8175764753651250e-02   4.3050502448588455e-02   2.8294146969074795e-02   1.0217616316694211e-02  -1.5606001649577279e-02  -4.5118707111434710e-02  -6.8359966304522499e-02  -8.6067587382768998e-02  -1.0193067158468490e-01  -1.1558029834179634e-01  